,dt,open,close,high,low,vol,turnover,ts,icon_1,icon_2,icon_11,icon_12,icon_13,icon_41,icon_34,icon_35,icon_38,icon_39,jw1,jw5,atr5,jw30,baijiao,buy_signal,sell_signal,cash,chicang,buy_detail,sell_detail,profit,max_zhiying_prices
19,2024-01-16 22:50:00,180.651,180.365,180.651,180.365,297298.0,53846784.0,1705416600,1.0,,,,,,,,,,-22.254710652524025,18.29109851888533,0.5735714285714307,57.81967907248462,-77.77907201775103,1,0,50140.324,180.651:276.0;,180.651:276.0;,,0.0,180.651;
20,2024-01-16 22:51:00,180.353,180.323,180.353,180.235,400338.0,72391936.0,1705416660,,,,,,,,,,,-23.918239703227258,18.29109851888533,0.5735714285714307,57.81967907248462,-78.25910186489062,0,0,99917.75200000001,,,180.353:276.0;,-82.2480000000005,
319,2024-01-26 03:50:00,192.54,192.615,192.615,192.53,54420.0,10513920.0,1706212200,,,,,,,,,1.0,,5.610280620591801,-19.92470048265216,0.2899285714285692,54.921752825462136,-64.72284309260505,1,0,50049.89200000001,192.54:259.0;,192.54:259.0;,,0.0,192.54;
338,2024-01-26 04:09:00,192.968,193.072,193.085,192.968,95212.0,18449920.0,1706213340,,,,,,,,,,,83.19627023460673,-16.963131741163522,0.2674285714285673,44.86131952736412,80.80564694639314,0,0,100028.604,,,192.968:259.0;,110.8519999999993,
20,2024-01-29 22:51:00,189.388,189.68,189.68,189.388,379397.0,72166016.0,1706539860,1.0,,,,,,,,,,2.261646570733028,-0.801787740247228,0.4054285714285726,-12.590651374039538,-72.19837872742255,1,0,50030.172000000006,189.388:264.0;,189.388:264.0;,,0.0,189.388;
32,2024-01-29 23:03:00,189.92,189.96,190.08,189.875,247655.0,47195136.0,1706540580,,,,,,,,,,,35.15426324029581,6.260578784001396,0.4587857142857164,-13.406976696394835,77.2876480479569,0,0,100169.052,,,189.92:264.0;,140.44799999999532,
86,2024-01-30 23:57:00,187.585,187.63,187.63,187.56,276444.0,52098560.0,1706630220,,,,,,,,,1.0,,-6.7282317466356645,0.0305457736953655,0.4624285714285666,21.643284307749163,-75.8156094048907,1,0,50271.441999999995,187.585:266.0;,187.585:266.0;,,0.0,187.585;
92,2024-01-31 00:03:00,187.45,187.66,187.66,187.45,268012.0,50497792.0,1706630580,,,,,,,,,,,-4.736178898117373,-4.000323512900124,0.4695714285714233,18.31251597750945,-72.09904150417529,0,0,100133.14199999999,,,187.45:266.0;,-35.91000000000514,
279,2024-01-31 03:10:00,186.96,186.845,186.99,186.845,105724.0,19832832.0,1706641800,,,,,1.0,,1.0,,,,-20.034790313622125,-1.5836967777681965,0.2144285714285721,7.68117702830645,-75.52727040559336,1,0,50214.82199999999,186.96:267.0;,186.96:267.0;,,0.0,186.96;
280,2024-01-31 03:11:00,186.86,186.855,186.94,186.855,114276.0,21432320.0,1706641860,,,,,,,,,,,-19.97122832463636,-1.5836967777681965,0.2144285714285721,7.68117702830645,-76.07625871533149,0,0,100106.442,,,186.86:267.0;,-26.699999999998482,
64,2024-02-08 23:35:00,186.95,186.935,186.962,186.913,84965.0,15769088.0,1707406500,1.0,,,,,,,,,,1.710324183854226,6.478767827589124,0.3825714285714282,67.07326712598663,-54.924477558157946,1,0,50190.792,186.95:267.0;,186.95:267.0;,,0.0,186.95;
69,2024-02-08 23:40:00,186.865,186.89,186.929,186.86,115908.0,21555840.0,1707406800,,,,,,,,,,,13.154741122551169,4.389133057693456,0.3543571428571417,67.07326712598663,64.8883575049296,0,0,100083.747,,,186.865:267.0;,-22.694999999994536,
337,2024-02-13 04:08:00,186.362,186.4,186.43,186.362,40488.0,7552000.0,1707768480,1.0,,,,1.0,,,,,,-0.97988831642774,6.824477649200631,0.1644999999999978,10.18522326243918,-58.16471522340153,1,0,50138.73100000001,186.362:268.0;,186.362:268.0;,,0.0,186.362;
355,2024-02-13 04:26:00,186.605,186.675,186.675,186.605,53244.0,9960960.0,1707769560,,,,,,,,,,,69.47125967622561,6.835244064371757,0.1679999999999982,10.18522326243918,79.98586542509392,0,0,100148.87100000001,,,186.605:268.0;,65.12399999999866,
7,2024-02-13 22:38:00,184.13,184.27,184.31,184.13,294513.0,54378112.0,1707835080,1.0,,,,,,,,,,7.262916510315918,14.014866139368245,0.343285714285709,0.7131129517029393,-76.34221532719961,1,0,50249.64100000002,184.13:271.0;,184.13:271.0;,,0.0,184.13;
9,2024-02-13 22:40:00,184.114,183.91,184.114,183.91,279970.0,51626624.0,1707835200,,,,,,,,,,,-0.8201933347233563,10.886290629258632,0.3714999999999954,0.7131129517029393,-75.11218310390068,0,0,100144.53500000002,,,184.114:271.0;,-4.335999999997597,
86,2024-02-14 23:57:00,182.885,182.78,182.885,182.77,111029.0,20373760.0,1707926220,1.0,,,,,,,,,,16.58954706149322,9.288296453483454,0.3517142857142862,8.655201371406456,-70.44436154316004,1,0,50216.93000000002,182.885:273.0;,182.885:273.0;,,0.0,182.885;
87,2024-02-14 23:58:00,182.74,182.772,182.87,182.74,119660.0,21963776.0,1707926280,,,,,,,,,,,14.778966838787014,9.288296453483454,0.3517142857142862,8.655201371406456,-68.06371592168847,0,0,100104.95000000003,,,182.74:273.0;,-39.584999999995034,
12,2024-02-20 22:43:00,180.642,180.65,180.65,180.51,210775.0,38170944.0,1708440180,1.0,,,,,,,,,,32.863281616552555,13.09952743100041,0.3475714285714255,30.686590649594788,-69.45443870241232,1,0,50067.11600000003,180.642:277.0;,180.642:277.0;,,0.0,180.642;
13,2024-02-20 22:44:00,180.46,180.249,180.46,180.249,256194.0,46348608.0,1708440240,,,,,,,,,,,26.38642063294365,13.09952743100041,0.3475714285714255,30.686590649594788,-67.64904230346355,0,0,100054.53600000004,,,180.46:277.0;,-50.41399999999666,
96,2024-02-24 00:07:00,182.265,182.355,182.37,182.265,126140.0,23265536.0,1708704420,1.0,,,,,,,,,,22.18460579991964,-17.3420965804971,0.3004999999999975,96.73932911567876,-70.31586249245,1,0,50113.92600000004,182.265:274.0;,182.265:274.0;,,0.0,182.265;
104,2024-02-24 00:15:00,182.145,182.271,182.32,182.145,111256.0,20489216.0,1708704900,,,,,,,,,,,15.677081835612915,-21.67239643795486,0.2879999999999967,96.73932911567876,-62.31187925338348,0,0,100021.65600000005,,,182.145:274.0;,-32.87999999999346,
62,2024-03-05 23:33:00,169.42,169.36,169.42,169.22,325418.0,54920192.0,1709652780,1.0,,,,,,,,,,10.253781130134596,7.400000095756837,0.7842857142857176,8.218554852038004,-73.8794920015592,1,0,50042.75600000005,169.42:295.0;,169.42:295.0;,,0.0,169.42;
93,2024-03-06 00:04:00,169.73,169.681,169.73,169.681,151136.0,25246208.0,1709654640,,,,,,,,,,,90.46813967933468,-5.386362722868654,0.354142857142859,7.378630398555707,82.12433467199487,0,0,100113.10600000006,,,169.73:295.0;,91.45000000000067,
22,2024-03-06 22:53:00,168.72,168.95,168.95,168.72,218801.0,37030400.0,1709736780,1.0,,,,1.0,,,,,,-13.15413575394642,9.772855385350816,0.3841428571428582,3.419082046650317,-76.93990194836381,1,0,50171.986000000055,168.72:296.0;,168.72:296.0;,,0.0,168.72;
29,2024-03-06 23:00:00,169.26,169.26,169.26,169.15,302023.0,51278336.0,1709737200,,,,,,,,,,,8.610600076098947,14.058340996751973,0.4477142857142878,3.697272590509288,48.33428729478276,0,0,100272.94600000005,,,169.26:296.0;,159.83999999999764,
37,2024-03-13 22:08:00,170.69,170.662,170.77,170.64,211005.0,36112128.0,1710338880,1.0,,,,,,,,,,-12.936913339714645,19.217684753784283,0.4009285714285673,76.83981453853164,-77.96675475024145,1,0,50260.776000000056,170.69:293.0;,170.69:293.0;,,0.0,170.69;
41,2024-03-13 22:12:00,170.41,170.455,170.48,170.372,330543.0,56509824.0,1710339120,,,,,,,,,,,-11.71402543959958,11.11363460016102,0.4071428571428543,76.83981453853164,-78.72014097970272,0,0,100190.90600000005,,,170.41:293.0;,-82.04000000000033,
60,2024-03-15 22:31:00,170.145,170.15,170.19,170.14,168380.0,28208128.0,1710513060,1.0,,,,,,,,,,-3.7486511402825258,12.959441127908477,0.671357142857145,60.05441959293826,-64.17177113672406,1,0,50168.27600000004,170.145:294.0;,170.145:294.0;,,0.0,170.145;
81,2024-03-15 22:52:00,170.271,170.27,170.28,170.27,76476.0,12765184.0,1710514320,,,,,,,,,,,47.743313916157376,5.984869432297145,0.3362142857142852,60.05441959293826,27.38796914152317,0,0,100227.95000000004,,,170.271:294.0;,37.04399999999305,
39,2024-03-21 22:10:00,175.09,175.015,175.09,175.015,189243.0,33202176.0,1711030200,1.0,,,,,,,,,,-15.89973876136225,19.48350791747549,0.7164999999999964,92.89165348186734,-77.98793172028414,1,0,50152.21000000004,175.09:286.0;,175.09:286.0;,,0.0,175.09;
48,2024-03-21 22:19:00,174.639,174.765,174.79,174.639,227489.0,39839488.0,1711030740,,,,,,,,,,,-13.030951896967233,12.15908332659552,0.7250714285714233,92.89165348186734,-77.04323257090665,0,0,100098.96400000004,,,174.639:286.0;,-128.9859999999981,
65,2024-03-21 22:36:00,173.47,173.735,173.735,173.47,791144.0,137987072.0,1711031760,,,,,,,,,1.0,,-6.303670618350623,-10.560707264420998,0.7993571428571349,86.89270307797332,-76.61593376775205,1,0,50139.604000000036,173.47:288.0;,173.47:288.0;,,0.0,173.47;
69,2024-03-21 22:40:00,173.295,172.95,173.36,172.95,565882.0,98570752.0,1711032000,,,,,,,,,,,-6.221955373292381,-15.070843344278998,0.6586428571428513,86.89270307797332,-75.89928887998681,0,0,100048.56400000004,,,173.295:288.0;,-50.400000000003274,
72,2024-03-21 22:43:00,173.09,173.252,173.37,173.09,668628.0,116436992.0,1711032180,,,,,1.0,,1.0,,,,-0.1481966236148117,-15.070843344278998,0.6586428571428513,86.89270307797332,-69.60916793308982,1,0,50025.55400000004,173.09:289.0;,173.09:289.0;,,0.0,173.09;
82,2024-03-21 22:53:00,173.013,172.735,173.013,172.65,683768.0,118196736.0,1711032780,,,,,,,,,,,15.075103846149212,-18.11284411034343,0.500714285714281,86.89270307797332,57.26225923508527,0,0,100026.31100000005,,,173.013:289.0;,-22.252999999999474,
261,2024-03-22 01:52:00,170.89,170.914,170.914,170.88,124208.0,21273600.0,1711043520,,,,,1.0,,,,,,-8.947270377601477,-10.401450434008495,0.2067142857142861,24.11719587350109,-76.9904426349463,1,0,49955.54100000005,170.89:293.0;,170.89:293.0;,,0.0,170.89;
263,2024-03-22 01:54:00,170.79,170.755,170.825,170.755,231712.0,39706624.0,1711043640,,,,,,,,,,,-11.556011615171798,-10.401450434008495,0.2067142857142861,24.11719587350109,-76.68967750941644,0,0,99997.01100000006,,,170.79:293.0;,-29.299999999998334,
6,2024-03-22 21:37:00,170.37,170.445,170.445,170.315,347179.0,59332672.0,1711114620,1.0,,,,,,,,,,36.43574344165208,13.329423611773532,0.3422142857142916,-11.390425125810252,-68.35181662955529,1,0,50078.60100000005,170.37:293.0;,170.37:293.0;,,0.0,170.37;
8,2024-03-22 21:39:00,170.29,170.425,170.425,170.165,427075.0,72952384.0,1711114740,,,,,,,,,,,23.7920818392726,13.329423611773532,0.3422142857142916,-11.390425125810252,-74.99578428023537,0,0,99973.57100000005,,,170.29:293.0;,-23.440000000003664,
280,2024-04-16 02:11:00,172.419,172.245,172.419,172.245,157564.0,27241984.0,1713204660,,,,,,,,,1.0,,-10.33998756612889,0.8235845158895643,0.383500000000002,66.13803203336812,-76.09376303281202,1,0,50144.480000000054,172.419:289.0;,172.419:289.0;,,0.0,172.419;
281,2024-04-16 02:12:00,172.175,172.12,172.175,172.102,175056.0,30218240.0,1713204720,,,,,,,,,,,-10.509325730194533,0.8235845158895643,0.383500000000002,66.13803203336812,-77.23116594718321,0,0,99903.05500000005,,,172.175:289.0;,-70.51599999999993,
61,2024-04-16 22:32:00,170.75,170.89,170.89,170.74,148805.0,25655296.0,1713277920,1.0,,,,,,,,,,-19.005330129027968,18.93115524011016,0.6194285714285712,46.67318324958978,-77.75069647802827,1,0,50044.05500000005,170.75:292.0;,170.75:292.0;,,0.0,170.75;
65,2024-04-16 22:36:00,170.685,170.655,170.7,170.58,164650.0,28309248.0,1713278160,,,,,,,,,,,-21.594606211201523,14.813636254045818,0.5983571428571415,46.67318324958978,-78.18224632687237,0,0,99884.07500000006,,,170.685:292.0;,-18.979999999999336,
71,2024-04-16 22:42:00,170.165,170.19,170.19,170.125,219040.0,37628672.0,1713278520,,,,,1.0,,,,1.0,,-21.111105497228223,11.160981331722894,0.6104999999999998,46.67318324958978,-78.20101770069773,1,0,50025.730000000054,170.165:293.0;,170.165:293.0;,,0.0,170.165;
73,2024-04-16 22:44:00,169.8,169.8,169.8,169.65,341424.0,58359552.0,1713278640,,,,,,,,,,,-20.279248117803675,11.160981331722894,0.6104999999999998,46.67318324958978,-77.89860276022897,0,0,99777.13000000006,,,169.8:293.0;,-106.94499999999434,
82,2024-04-16 22:53:00,169.07,169.19,169.19,169.03,228812.0,38913024.0,1713279180,,,,,,,1.0,,,,-14.318438321031682,6.0958123092262895,0.5499285714285723,46.67318324958978,-77.71675566500917,1,0,49901.48000000006,169.07:295.0;,169.07:295.0;,,0.0,169.07;
87,2024-04-16 22:58:00,168.765,168.725,168.765,168.668,303058.0,51398400.0,1713279480,,,,,,,,,,,-11.235703985693496,4.238824989662426,0.5468571428571433,46.67318324958978,-76.48182656240839,0,0,99687.15500000006,,,168.765:295.0;,-89.97500000000201,
54,2024-04-19 22:25:00,164.55,164.48,164.56,164.48,163162.0,26926592.0,1713536700,1.0,,,,,,,,,,-4.52008686831363,7.526491537564716,0.500714285714283,3.876777666845836,-74.60097334819636,1,0,49993.05500000005,164.55:302.0;,164.55:302.0;,,0.0,164.55;
69,2024-04-19 22:40:00,164.68,164.71,164.75,164.68,156592.0,26028800.0,1713537600,,,,,,,,,,,71.15779381557786,8.109749776249501,0.4593571428571396,3.973435640591244,63.502070520135234,0,0,99726.41500000005,,,164.68:302.0;,39.25999999999863,
151,2024-04-20 00:02:00,164.1,164.155,164.165,164.1,85928.0,14141952.0,1713542520,,,,,1.0,,,,,,1.1135594348318918,-0.8761545015851624,0.2265714285714263,3.343465980594296,-69.81053912754577,1,0,50004.115000000056,164.1:303.0;,164.1:303.0;,,0.0,164.1;
157,2024-04-20 00:08:00,164.15,163.98,164.15,163.98,397994.0,65426944.0,1713542880,,,,,,,,,,,23.6714607646204,-0.2910885823590377,0.2328571428571422,3.343465980594296,67.79437325153313,0,0,99741.56500000006,,,164.15:303.0;,15.150000000003445,
253,2024-04-27 01:44:00,169.03,168.937,169.03,168.937,70226.0,11905536.0,1714153440,1.0,,,,1.0,,,,,,-0.4221169987797282,-7.880194023666633,0.1546428571428565,80.9499177697578,-65.10474770593316,1,0,49877.71500000006,169.03:295.0;,169.03:295.0;,,0.0,169.03;
254,2024-04-27 01:45:00,168.925,168.954,168.96,168.925,61418.0,10410240.0,1714153500,,,,,,,,,,,-0.5835771348319128,-11.465364298802116,0.1542142857142851,80.9499177697578,-67.131198707968,0,0,99710.59000000005,,,168.925:295.0;,-30.97499999999698,
322,2024-05-01 02:53:00,172.485,172.4,172.485,172.4,60592.0,10475520.0,1714503180,1.0,,,,,,,,,,-13.81714378099511,-2.947777492886175,0.1719285714285762,69.29635508239733,-74.38763255053328,1,0,49862.425000000054,172.485:289.0;,172.485:289.0;,,0.0,172.485;
323,2024-05-01 02:54:00,172.39,172.43,172.435,172.39,36082.0,6227456.0,1714503240,,,,,,,,,,,-13.040611783625168,-2.947777492886175,0.1719285714285762,69.29635508239733,-74.95712853127307,0,0,99683.13500000005,,,172.39:289.0;,-27.455000000007885,
388,2024-05-01 03:59:00,169.97,169.96,170.005,169.87,1006504.0,171450880.0,1714507140,,,,,,,1.0,,1.0,,7.91121707045378,-5.204137850815407,0.3029285714285724,63.39078044439063,-66.1906874539986,1,0,99683.13500000005,,,,0.0,
387,2024-05-04 03:58:00,182.905,182.72,182.905,182.72,764400.0,140154880.0,1714766280,,,,,1.0,,,,,,-5.158934806447675,7.509192610048046,0.3725000000000002,106.91373920692196,-76.18409587151992,1,0,99683.13500000005,,,,0.0,
26,2024-05-06 21:57:00,181.37,181.345,181.395,181.29,334692.0,60892928.0,1715003820,1.0,,,,,,,,,,45.19881485546934,4.895248673681692,0.7374999999999992,101.13105203948444,-27.523920583699404,1,0,49987.75500000005,181.37:274.0;,181.37:274.0;,,0.0,181.37;
39,2024-05-06 22:10:00,182.095,182.15,182.19,182.095,288906.0,52762880.0,1715004600,,,,,,,,,,,68.02082495514858,8.368900382429771,0.7747142857142839,99.76874427493492,58.97722918003226,0,0,99881.78500000005,,,182.095:274.0;,198.64999999999844,
73,2024-05-10 22:44:00,182.8,182.85,182.85,182.775,119834.0,22047488.0,1715352240,1.0,,,,,,,,,,1.2422980958880494,-9.744923548422122,0.4060714285714328,96.08969733812852,-74.4869243940187,1,0,49977.385000000046,182.8:273.0;,182.8:273.0;,,0.0,182.8;
75,2024-05-10 22:46:00,182.685,182.71,182.75,182.65,141681.0,25998592.0,1715352360,,,,,,,,,,,0.8973923164618363,-14.156093946542144,0.3760714285714316,96.08969733812852,-70.23690194787883,0,0,99850.39000000004,,,182.685:273.0;,-31.395000000002483,
203,2024-05-23 00:54:00,190.99,190.98,191.02,190.96,66546.0,12734976.0,1716396840,1.0,,,,1.0,,,,,,12.952071952469204,-21.790459635187812,0.1551428571428589,88.34907364325647,-75.16977141094195,1,0,50002.000000000044,190.99:261.0;,190.99:261.0;,,0.0,190.99;
210,2024-05-23 01:01:00,191.06,191.009,191.06,190.98,86372.0,16527616.0,1716397260,,,,,,,,,,,20.58851526442954,-22.0447207645492,0.1539285714285715,84.06448621791571,65.77268642442866,0,0,99868.66000000005,,,191.06:261.0;,18.26999999999822,
22,2024-05-28 21:53:00,190.336,190.09,190.336,190.09,310097.0,59052672.0,1716904380,1.0,,,,,,,,,,25.65419688791729,8.804351434958363,0.6617857142857092,62.375051099843446,-62.85630939379676,1,0,50000.62800000004,190.336:262.0;,190.336:262.0;,,0.0,190.336;
57,2024-05-28 22:28:00,191.29,191.12,191.29,191.061,203273.0,38930432.0,1716906480,,,,,,,,,,,70.9068863812063,12.541874093870874,0.8029285714285704,63.581048834676906,38.25451896916649,0,0,100118.60800000004,,,191.29:262.0;,249.94799999999458,
262,2024-05-29 01:53:00,190.02,190.04,190.04,190.0,103940.0,19743744.0,1716918780,,,,,1.0,,,,,,-8.872901322855647,10.561856173945245,0.1767857142857138,70.97523357163024,-76.27603275784604,1,0,50333.36800000003,190.02:262.0;,190.02:262.0;,,0.0,190.02;
267,2024-05-29 01:58:00,189.971,189.99,190.03,189.971,54950.0,10435584.0,1716919080,,,,,,,,,,,-7.958213218819143,7.061604225117819,0.1886428571428565,70.97523357163024,-73.68256516139549,0,0,100105.77000000003,,,189.971:262.0;,-12.838000000001728,
308,2024-05-29 02:39:00,188.96,188.96,189.007,188.96,69472.0,13131776.0,1716921540,,,,,,,,,1.0,,-1.5465250383100368,-7.386985586133719,0.1994285714285695,65.73673057243238,-73.84961631385703,1,0,50220.33000000003,188.96:264.0;,188.96:264.0;,,0.0,188.96;
317,2024-05-29 02:48:00,189.188,189.215,189.215,189.14,129868.0,24579584.0,1716922080,,,,,,,,,,,25.94535469696276,-6.101315699615441,0.2115714285714257,65.73673057243238,84.39071535195576,0,0,100165.96200000003,,,189.188:264.0;,60.19199999999478,
111,2024-06-18 23:22:00,213.47,213.57,213.64,213.47,310804.0,66047488.0,1718724120,,,,,1.0,,,,1.0,,-9.3833300687893,-17.214731189571623,0.4555714285714377,58.059855523346585,-77.29256240095121,1,0,50213.982000000025,213.47:234.0;,213.47:234.0;,,0.0,213.47;
124,2024-06-18 23:35:00,213.9,213.72,213.9,213.72,300048.0,63948288.0,1718724900,,,,,,,,,,,21.661319384742235,-16.844749626731428,0.4390000000000071,52.718510105582766,70.20474859502687,0,0,100266.58200000002,,,213.9:234.0;,100.6200000000016,
168,2024-06-19 00:19:00,213.16,213.081,213.18,213.081,113624.0,24233472.0,1718727540,,,,,,,1.0,,,,10.585031896416352,-19.85736012083214,0.4399285714285729,47.06894523826338,-73.52239884912302,1,0,50387.14200000002,213.16:234.0;,213.16:234.0;,,0.0,213.16;
174,2024-06-19 00:25:00,212.955,212.88,212.96,212.88,113508.0,24159744.0,1718727900,,,,,,,,,,,-0.9298076588595166,-20.85761821425753,0.3867857142857137,47.06894523826338,-77.50515330441877,0,0,100218.61200000002,,,212.955:234.0;,-47.969999999996276,
387,2024-06-29 03:58:00,210.68,210.815,210.815,210.6,1316648.0,277946368.0,1719604680,,,,,,,1.0,,1.0,,35.75850768992969,16.869459910620478,0.463000000000004,55.21804156986266,-73.55556490440644,1,0,100218.61200000002,,,,0.0,
53,2024-07-11 22:24:00,228.9,228.97,228.97,228.85,267073.0,61220864.0,1720707840,,,,,,,,,1.0,,-3.470248927294392,19.67288532852973,0.833428571428574,93.36266092985316,-77.06694102110912,1,0,50318.41200000002,228.9:218.0;,228.9:218.0;,,0.0,228.9;
58,2024-07-11 22:29:00,229.05,228.9,229.17,228.9,175582.0,40295168.0,1720708140,,,,,,,,,,,4.600790015763458,14.220138303261422,0.882785714285717,93.36266092985316,-58.32935434333442,0,0,100251.31200000002,,,229.05:218.0;,32.70000000000124,
83,2024-07-11 22:54:00,228.13,227.86,228.13,227.86,165308.0,37353984.0,1720709640,,,,,,,1.0,,,,-2.459949230475821,-9.140428468413576,0.8455714285714281,86.40834443426999,-69.7615645401094,1,0,50290.84200000002,228.13:219.0;,228.13:219.0;,,0.0,228.13;
86,2024-07-11 22:57:00,227.835,227.86,227.96,227.81,117838.0,26520064.0,1720709820,,,,,,,,,,,3.23925123577126,-10.428682458408034,0.8334285714285699,86.40834443426999,12.37882301161898,0,0,100186.70700000002,,,227.835:219.0;,-64.60499999999726,
48,2024-07-17 22:19:00,227.485,227.481,227.485,227.39,249036.0,56717056.0,1721225940,,,,,,,,,1.0,,-6.100902490909949,19.570076590336384,1.1401428571428542,60.88873654375911,-75.4591187907093,1,0,50140.00700000002,227.485:220.0;,227.485:220.0;,,0.0,227.485;
78,2024-07-17 22:49:00,227.74,227.679,227.74,227.63,73886.0,16263680.0,1721227740,,,,,,,,,,,88.86459994180247,2.37904452294039,0.8829285714285707,49.75789001551732,49.11130949958408,0,0,100242.80700000003,,,227.74:220.0;,56.099999999999,
141,2024-07-22 23:52:00,223.15,223.35,223.35,223.12,66986.0,15030016.0,1721663520,,,,,,,1.0,,,,8.153954184547406,9.456840854230832,0.5264285714285758,30.893698530887328,-74.20306543558112,1,0,50257.20700000003,223.15:224.0;,223.15:224.0;,,0.0,223.15;
155,2024-07-23 00:06:00,223.35,223.19,223.36,223.18,65418.0,14358016.0,1721664360,,,,,,,,,,,41.424257641052,0.804869428929976,0.5424999999999999,29.54216433178203,42.77676940825138,0,0,100287.60700000003,,,223.35:224.0;,44.79999999999745,
8,2024-07-24 21:39:00,221.587,221.38,221.587,221.364,250419.0,55526848.0,1721828340,1.0,,,,,,,,,,1.1560385402305258,3.152505094552609,0.5058571428571383,56.518724292366834,-76.79972705938076,1,0,50208.945000000036,221.587:226.0;,221.587:226.0;,,0.0,221.587;
9,2024-07-24 21:40:00,221.33,221.23,221.49,221.23,316325.0,70064256.0,1721828400,,,,,,,,,,,-3.5817537921513747,-0.2688746082774145,0.606428571428568,56.518724292366834,-77.61526120024234,0,0,100229.52500000004,,,221.33:226.0;,-58.08199999999471,
79,2024-07-24 22:50:00,219.001,219.0,219.075,218.998,145071.0,31941376.0,1721832600,,,,,,,1.0,,,,0.2539494717578598,-10.506342934393942,0.6292142857142794,43.73532971590787,-75.50929388577649,1,0,50297.297000000035,219.001:228.0;,219.001:228.0;,,0.0,219.001;
83,2024-07-24 22:54:00,218.831,218.593,218.831,218.593,158321.0,34756096.0,1721832840,,,,,,,,,1.0,,-1.5581958896225956,-10.506342934393942,0.6292142857142794,43.73532971590787,-72.14653597863479,1,0,184.99800000003597,219.001:228.0;218.831:229.0;,218.831:229.0;,,0.0,219.06;218.831;
84,2024-07-24 22:55:00,218.783,218.635,218.85,218.635,212653.0,46672384.0,1721832900,,,,,,,,,,,-2.071672406398651,-11.276303881276682,0.614142857142852,43.73532971590787,-75.17449910767826,0,0,50067.52200000003,218.831:229.0;,,218.783:228.0;,-49.704000000004044,218.831;
88,2024-07-24 22:59:00,218.62,218.65,218.705,218.62,111658.0,24542464.0,1721833140,,,,,,,,,,,0.0652243091243711,-11.276303881276682,0.614142857142852,43.73532971590787,32.38467144038844,0,0,100131.50200000004,,,218.62:229.0;,-48.31899999999641,
6,2024-07-26 21:37:00,217.522,216.94,217.571,216.92,237399.0,51640256.0,1722001020,1.0,,,,,,,,,,-1.4308075076869216,9.521037103795436,0.783857142857138,43.70729010569427,-65.49414397655822,1,0,50101.44200000004,217.522:230.0;,217.522:230.0;,,0.0,217.522;
7,2024-07-26 21:38:00,217.11,216.81,217.381,216.72,287063.0,62344128.0,1722001080,,,,,,,,,,,-3.5576436608347777,9.521037103795436,0.783857142857138,43.70729010569427,-72.09195935925605,0,0,100036.74200000004,,,217.11:230.0;,-94.75999999999487,
133,2024-07-30 23:44:00,216.24,216.175,216.24,216.08,72337.0,15710720.0,1722354240,,,,,,,,,1.0,,-2.9654921385207587,3.6938173819006295,0.4728571428571432,68.1162321672736,-76.19579108701267,1,0,50085.30200000004,216.24:231.0;,216.24:231.0;,,0.0,216.24;
168,2024-07-31 00:19:00,216.743,216.8,216.8,216.62,70184.0,15234560.0,1722356340,,,,,,,,,,,83.61600040269198,-10.300442131964232,0.3511428571428548,63.39741704237771,72.52642178783653,0,0,100152.93500000004,,,216.743:231.0;,116.19299999999674,
134,2024-08-01 23:45:00,219.27,219.07,219.27,219.07,129238.0,28442368.0,1722527100,,,,,,,1.0,,,,14.664155255374858,-14.078403405225956,0.5993571428571443,89.05576951920162,-74.04454459099742,1,0,50159.37500000004,219.27:228.0;,219.27:228.0;,,0.0,219.27;
135,2024-08-01 23:46:00,219.03,219.27,219.27,219.03,83146.0,18317056.0,1722527160,,,,,,,,,,,14.25108567976602,-14.078403405225956,0.5993571428571443,89.05576951920162,-76.10882540042824,0,0,100098.21500000004,,,219.03:228.0;,-54.720000000002074,
383,2024-08-03 03:54:00,219.57,219.22,219.57,219.22,427776.0,93966336.0,1722628440,,,,,,,,,1.0,,3.182870087827233,-2.413034995077595,0.6963571428571405,77.77315124451786,-74.14455806490473,1,0,100098.21500000004,,,,0.0,
9,2024-08-06 21:40:00,204.425,203.53,204.425,203.49,426815.0,87160704.0,1722951600,1.0,,,,,,,,,,9.01567188532036,16.34253519537792,1.9209999999999945,23.83035980165772,-75.15279142977245,1,0,50218.515000000036,204.425:244.0;,204.425:244.0;,,0.0,204.425;
10,2024-08-06 21:41:00,203.585,202.61,203.585,202.61,503521.0,102466432.0,1722951660,,,,,,,,,,,3.0365476463098844,16.34253519537792,1.9209999999999945,23.83035980165772,-76.63185594358585,0,0,99893.25500000003,,,203.585:244.0;,-204.96000000000083,
12,2024-08-06 21:43:00,202.595,202.119,202.595,202.119,344364.0,69819392.0,1722951780,,,,,,,,,1.0,,-6.274172664254976,16.34253519537792,1.9209999999999945,23.83035980165772,-77.77887729648637,1,0,49852.29000000004,202.595:247.0;,202.595:247.0;,,0.0,202.595;
15,2024-08-06 21:46:00,201.165,201.36,201.66,200.94,756374.0,152655360.0,1722951960,,,,,,,,,,,-15.179178549478422,11.205463842481237,1.9224285714285665,23.83035980165772,-78.40138580978474,0,0,99540.04500000004,,,201.165:247.0;,-353.2100000000017,
17,2024-08-06 21:48:00,201.97,202.66,202.66,201.91,499730.0,101143552.0,1722952080,,,,,,,1.0,,,,-15.741160868633926,11.205463842481237,1.9224285714285665,23.83035980165772,-77.31172802919308,1,0,49653.455000000045,201.97:247.0;,201.97:247.0;,,0.0,201.97;
18,2024-08-06 21:49:00,202.64,202.96,203.04,202.64,469569.0,95376128.0,1722952140,,,,,1.0,,,,,,-14.47542959736819,11.205463842481237,1.9224285714285665,23.83035980165772,-74.55991784326123,1,0,6.6550000000497676,201.97:247.0;202.64:245.0;,202.64:245.0;,,0.0,202.64;202.64;
30,2024-08-06 22:01:00,202.55,202.52,202.71,202.29,346744.0,70358272.0,1722952860,,,,,,,,,,,0.881515600780304,9.25856835013508,2.062428571428567,18.69201417369661,-6.829795584505681,0,0,99661.25500000006,,,202.55:247.0;202.55:245.0;,121.21000000000922,
324,2024-08-08 02:55:00,209.1,208.99,209.103,208.97,62732.0,13109760.0,1723056900,,,,,,,,,1.0,,-3.509997591039607,-19.76792508845477,0.5151428571428524,49.03686476957185,-73.8644972539178,1,0,49895.45500000007,209.1:238.0;,209.1:238.0;,,0.0,209.1;
325,2024-08-08 02:56:00,208.88,208.99,209.118,208.88,103716.0,21685760.0,1723056960,,,,,,,,,,,-3.882890457080314,-19.76792508845477,0.5151428571428524,49.03686476957185,-73.2472147238527,0,0,99608.89500000008,,,208.88:238.0;,-52.35999999999973,
264,2024-08-13 01:55:00,216.705,216.688,216.75,216.682,41066.0,8865280.0,1723485300,1.0,,,,,,,,,,4.275575729263743,3.794524060125525,0.3361428571428583,87.71392731749052,-67.94651442916988,1,0,49983.45000000008,216.705:229.0;,216.705:229.0;,,0.0,216.705;
276,2024-08-13 02:07:00,216.88,216.81,216.88,216.81,26840.0,5799424.0,1723486020,,,,,,,,,,,30.991282734666363,-2.368873226938632,0.3285000000000013,85.31393253000749,63.84954819431998,0,0,99648.97000000007,,,216.88:229.0;,40.074999999996095,
51,2024-08-19 22:22:00,223.27,223.63,223.63,223.27,166490.0,37202944.0,1724077320,1.0,,,,,,,,,,-0.6904548599541123,-19.877361402815996,0.5584999999999951,84.4351492352823,-76.12088427856601,1,0,49859.760000000075,223.27:223.0;,223.27:223.0;,,0.0,223.27;
64,2024-08-19 22:35:00,223.855,223.85,223.88,223.85,63603.0,14233856.0,1724078100,,,,,,,,,,,57.257318928110585,-13.859324946085168,0.6043571428571397,79.3858307647991,75.83024453749351,0,0,99779.42500000008,,,223.855:223.0;,130.45499999999544,
261,2024-08-23 01:52:00,224.23,224.29,224.29,224.148,40836.0,9144832.0,1724349120,,,,,,,,,1.0,,-1.195794507826328,-1.411999581570015,0.4369285714285707,45.302392134237806,-76.45553456270518,1,0,50000.36500000008,224.23:222.0;,224.23:222.0;,,0.0,224.23;
265,2024-08-23 01:56:00,224.11,224.25,224.25,224.11,50968.0,11406848.0,1724349360,,,,,,,,,,,-1.3884112025984123,-3.712088106860492,0.4537142857142839,45.302392134237806,-75.16708409099792,0,0,99752.78500000009,,,224.11:222.0;,-26.6399999999947,
272,2024-08-29 02:03:00,225.975,225.978,225.98,225.955,52718.0,,1724868180,,,,,1.0,,,,,,-17.228916691679657,9.42821985650751,0.2892857142857131,72.4020975915382,-77.00921772112837,1,0,50038.28500000009,225.975:220.0;,225.975:220.0;,,0.0,225.975;
286,2024-08-29 02:17:00,226.133,226.2,226.23,226.13,105798.0,23891456.0,1724869020,,,,,,,,,,,14.57757025021212,5.137097608910857,0.306357142857146,72.4020975915382,-9.568598905869695,0,0,99787.5450000001,,,226.133:220.0;,34.7600000000034,
311,2024-08-30 02:42:00,230.49,230.48,230.535,230.423,68380.0,15757312.0,1724956920,1.0,,,,,,,,,,15.469251848020406,5.171636785807948,0.4369999999999976,83.16058120389502,-64.21472681573701,1,0,50001.705000000096,230.49:216.0;,230.49:216.0;,,0.0,230.49;
313,2024-08-30 02:44:00,230.28,230.12,230.28,229.92,316644.0,72758784.0,1724957040,,,,,,,,,,,13.603658885280636,5.171636785807948,0.4369999999999976,83.16058120389502,-54.85302304146184,0,0,99742.1850000001,,,230.28:216.0;,-45.36000000000172,
105,2024-08-30 23:16:00,228.41,228.35,228.41,228.32,57450.0,13190400.0,1725030960,1.0,,,,,,,,,,-4.391799296035458,-2.620036694641953,0.4512142857142822,79.2115390038822,-74.79068279744577,1,0,49948.8050000001,228.41:218.0;,228.41:218.0;,,0.0,228.41;
108,2024-08-30 23:19:00,228.11,228.13,228.22,228.1,157271.0,35941632.0,1725031140,,,,,,,,,,,-10.402049634324412,-2.620036694641953,0.4512142857142822,79.2115390038822,-75.62886249476914,0,0,99676.7850000001,,,228.11:218.0;,-65.39999999999628,
53,2024-09-04 22:24:00,217.96,217.74,217.96,217.74,149504.0,32595712.0,1725459840,,,,,,,1.0,,,,1.357280135127347,14.164090211689071,1.1777142857142855,-5.148492642811135,-75.02698118145258,1,0,49981.9050000001,217.96:228.0;,217.96:228.0;,,0.0,217.96;
78,2024-09-04 22:49:00,219.07,218.86,219.07,218.785,139116.0,30578688.0,1725461340,,,,,,,,,,,102.7949643531018,19.36778205718593,0.8757142857142871,-5.69465239322291,70.27277874742896,0,0,99929.8650000001,,,219.07:228.0;,253.07999999999663,
262,2024-09-07 01:53:00,220.17,220.32,220.32,220.17,28206.0,6194176.0,1725645180,,,,,,,1.0,,,,-13.267876246694044,-6.623571739273835,0.3229285714285684,46.78295483400563,-76.94411328255082,1,0,50171.44500000011,220.17:226.0;,220.17:226.0;,,0.0,220.17;
268,2024-09-07 01:59:00,220.37,220.26,220.37,220.26,65152.0,14327808.0,1725645540,,,,,,,,,,,-2.4134692995465628,-6.564404794379556,0.3261428571428553,46.78295483400563,-38.00188060365105,0,0,99975.06500000012,,,220.37:226.0;,45.200000000003854,
