,dt,open,close,high,low,vol,turnover,ts,icon_1,icon_2,icon_11,icon_12,icon_13,icon_41,icon_34,icon_35,icon_38,icon_39,jw1,jw5,atr5,jw30,baijiao,buy_signal,sell_signal,cash,chicang,buy_detail,sell_detail,profit,max_zhiying_prices
320,2024-01-06 03:51:00,138.52,138.283,138.52,138.283,208292.0,28822528.0,1704484260,1.0,,,,,,,,,,-12.444218538382358,-14.428019603994656,0.3055000000000031,61.60743521014365,-76.11081958994527,1,0,50132.799999999996,138.52:360.0;,138.52:360.0;,,0.0,138.52;
321,2024-01-06 03:52:00,138.28,138.19,138.28,138.19,252392.0,34897920.0,1704484320,,,,,,,,,,,-13.14612852911462,-14.428019603994656,0.3055000000000031,61.60743521014365,-77.24106443448845,0,0,99913.6,,,138.28:360.0;,-86.40000000000327,
18,2024-01-10 22:49:00,147.525,147.67,147.67,147.457,267237.0,39435392.0,1704898140,,,,,,,1.0,,1.0,,4.833806410355777,18.37347835308836,0.615714285714284,95.81726768181004,-76.95754760366374,1,0,50050.15,147.525:338.0;,147.525:338.0;,,0.0,147.525;
21,2024-01-10 22:52:00,147.37,147.29,147.66,147.29,341515.0,50376320.0,1704898320,,,,,,,,,,,-0.1079890085521313,13.046692646474924,0.604142857142855,95.81726768181004,-74.04176039038856,0,0,99861.21,,,147.37:338.0;,-52.390000000000384,
24,2024-01-17 22:55:00,155.693,155.48,155.693,155.33,365484.0,56829184.0,1705503300,,,,,,,,,1.0,,-18.257663869480357,15.32333773758164,1.0994285714285692,104.81283105816162,-77.61706721785603,1,0,50039.450000000004,155.693:320.0;,155.693:320.0;,,0.0,155.693;
29,2024-01-17 23:00:00,155.04,154.635,155.04,154.635,632972.0,97993472.0,1705503600,,,,,,,,,,,-20.62476010454833,9.23268751555102,1.139714285714285,101.87866593702256,-77.75115383878286,0,0,99652.25,,,155.04:320.0;,-208.9600000000064,
31,2024-01-17 23:02:00,155.15,154.94,155.15,154.69,472492.0,73171968.0,1705503720,,,,,,,1.0,,,,-19.76637153905054,9.23268751555102,1.139714285714285,101.87866593702256,-77.92702740616897,1,0,49849.1,155.15:321.0;,155.15:321.0;,,0.0,155.15;
33,2024-01-17 23:04:00,154.69,155.11,155.11,154.53,470670.0,72850176.0,1705503840,,,,,,,,,,,-18.19777220397017,9.23268751555102,1.139714285714285,101.87866593702256,-77.09451884178931,0,0,99504.59,,,154.69:321.0;,-147.66000000000255,
186,2024-01-19 01:37:00,160.324,160.64,160.64,160.324,325408.0,52296704.0,1705599420,,,1.0,,,,,,,,12.02292670682317,5.893653567795852,0.6877142857142827,78.09384095570454,-67.27454884362389,1,0,49804.149999999994,160.324:310.0;,160.324:310.0;,,0.0,160.324;
192,2024-01-19 01:43:00,160.435,160.815,160.815,160.435,192544.0,30939136.0,1705599780,,,,,,,,,,,27.39181445223987,3.855785839997239,0.7149999999999973,78.09384095570454,63.30464649964171,0,0,99539.0,,,160.435:310.0;,34.4099999999969,
62,2024-01-22 23:33:00,165.77,165.71,165.77,165.455,626648.0,103615488.0,1705937580,,,1.0,,,,,,,,-7.4322953811189905,-8.255824344964765,1.80085714285714,91.20089182914182,-78.26529676244851,1,0,49808.0,165.77:300.0;,165.77:300.0;,,0.0,165.77;
67,2024-01-22 23:38:00,165.2,165.19,165.2,164.866,610484.0,100656128.0,1705937880,,,,,,,,,,,-5.323343686172532,-13.427399087231636,1.827285714285712,91.20089182914182,-77.41998759538241,0,0,99368.0,,,165.2:300.0;,-171.00000000000648,
275,2024-01-26 03:06:00,178.35,178.79,178.79,178.28,326040.0,58224640.0,1706209560,,,,,,,1.0,,,,7.377749512531622,-1.1208045785186729,0.7539999999999988,95.00121904597135,-75.38790598883787,1,0,49786.700000000004,178.35:278.0;,178.35:278.0;,,0.0,178.35;
278,2024-01-26 03:09:00,178.158,177.73,178.158,177.73,472904.0,84062208.0,1706209740,,,,,,,,,,,-0.1358510174166554,-1.1208045785186729,0.7539999999999988,95.00121904597135,-73.45487600361325,0,0,99314.62400000001,,,178.158:278.0;,-53.37600000000202,
176,2024-01-31 01:27:00,173.56,173.32,173.772,173.32,450756.0,78152704.0,1706635620,,,,,,,1.0,,,,-20.673682056541608,18.52842708342281,0.6387142857142842,17.383996727302886,-78.59631934701301,1,0,49676.46400000001,173.56:286.0;,173.56:286.0;,,0.0,173.56;
178,2024-01-31 01:29:00,173.704,173.87,173.87,173.635,293084.0,50898432.0,1706635740,,,,,1.0,,,,,,-18.714608044142395,18.52842708342281,0.6387142857142842,17.383996727302886,-78.10924139477176,1,0,170.8240000000078,173.56:286.0;173.704:285.0;,173.704:285.0;,,0.0,173.704;173.704;
183,2024-01-31 01:34:00,173.27,172.836,173.3,172.836,561344.0,97102848.0,1706636040,,,,,,,,,,,-18.3986873962912,13.663939959732588,0.651214285714285,11.622774729712503,-76.47105872210616,0,0,99107.99400000002,,,173.27:286.0;173.27:285.0;,-206.629999999997,
264,2024-01-31 02:55:00,170.22,170.43,170.43,170.04,358208.0,60945408.0,1706640900,,,1.0,,,,,,,,4.563868913017743,-10.866160787694753,0.7042857142857132,3.424474299454758,-3.350646555155889,1,0,49573.974000000024,170.22:291.0;,170.22:291.0;,,0.0,170.22;
276,2024-01-31 03:07:00,170.85,170.67,170.85,170.67,298816.0,51088384.0,1706641620,,,,,,,,,,,44.65676712790956,-7.286880685003119,0.7133571428571405,0.3954485550202093,80.39543755722814,0,0,99291.32400000002,,,170.85:291.0;,183.32999999999868,
302,2024-02-09 03:33:00,169.37,169.3,169.37,169.278,73290.0,12407808.0,1707420780,,,,,1.0,,,,,,-16.76838457844611,15.134906766426084,0.2747857142857149,52.18058004856081,-75.98392143029396,1,0,49665.91400000002,169.37:293.0;,169.37:293.0;,,0.0,169.37;
304,2024-02-09 03:35:00,169.2,169.09,169.2,169.09,109068.0,18443776.0,1707420900,,,,,,,,,,,-18.86482635067155,9.362776126590148,0.2830000000000012,52.18058004856081,-76.81825817183461,0,0,99241.51400000002,,,169.2:293.0;,-49.81000000000466,
310,2024-02-09 03:41:00,168.862,168.82,168.862,168.816,65660.0,11082752.0,1707421260,,,,,,,,,1.0,,-17.481467370370275,5.896964907071904,0.2930714285714312,52.18058004856081,-76.75850996796382,1,0,49764.948000000026,168.862:293.0;,168.862:293.0;,,0.0,168.862;
323,2024-02-09 03:54:00,168.916,168.819,168.916,168.76,153180.0,25856512.0,1707422040,,,,,,,,,,,14.42428533203799,3.0398711400438287,0.2902857142857178,52.18058004856081,10.995554522896423,0,0,99257.33600000002,,,168.916:293.0;,15.8220000000006,
288,2024-02-13 03:19:00,171.349,171.02,171.349,171.02,258752.0,44196352.0,1707765540,,,,,,,1.0,,,,-2.783950691556919,7.525970771628465,0.5850714285714288,102.88690452601342,-77.42774165893141,1,0,49737.47500000003,171.349:289.0;,171.349:289.0;,,0.0,171.349;
290,2024-02-13 03:21:00,170.93,171.11,171.11,170.87,319676.0,54576640.0,1707765660,,,,,,,,,,,-2.477490095015653,0.7452673886444359,0.6600714285714275,102.88690452601342,-78.42532343511962,0,0,99136.24500000002,,,170.93:289.0;,-121.090999999995,
24,2024-02-23 22:55:00,179.765,179.83,179.83,179.43,335061.0,60241920.0,1708700100,,,,,,,1.0,,,,2.4172125055776803,16.703051924660315,1.0080714285714285,121.69387711828278,-77.12004087791222,1,0,49700.87000000003,179.765:275.0;,179.765:275.0;,,0.0,179.765;
26,2024-02-23 22:57:00,179.086,178.57,179.305,178.57,550928.0,98620928.0,1708700220,,,,,,,,,,,-3.662406516646485,16.703051924660315,1.0080714285714285,121.69387711828278,-77.07010382084427,0,0,98949.52000000003,,,179.086:275.0;,-186.72499999999275,
32,2024-02-23 23:03:00,178.53,178.97,178.97,178.53,531229.0,94967808.0,1708700580,,,,,1.0,,,,,,-8.434498069333848,9.337045711746356,1.1042857142857148,120.81643926594263,-76.55242051270692,1,0,49496.710000000036,178.53:277.0;,178.53:277.0;,,0.0,178.53;
34,2024-02-23 23:05:00,178.485,178.29,178.485,178.232,401516.0,71625984.0,1708700700,,,,,,,,,,,-8.508470790788678,3.5950242529037557,1.141214285714288,120.81643926594263,-71.41313100839879,0,0,98937.05500000004,,,178.485:277.0;,-12.464999999996536,
98,2024-02-24 00:09:00,175.185,175.54,175.63,175.185,244190.0,42800640.0,1708704540,,,,,1.0,,,,,,7.571904812376268,-24.53751357589765,0.9430714285714268,116.54098037044416,-72.38752290739059,1,0,49534.88500000004,175.185:282.0;,175.185:282.0;,,0.0,175.185;
102,2024-02-24 00:13:00,175.15,175.045,175.215,175.045,230654.0,40379904.0,1708704780,,,,,,,,,,,7.088479720796961,-24.713973524922096,0.881142857142854,116.54098037044416,31.423592689803524,0,0,98927.18500000004,,,175.15:282.0;,-9.869999999999038,
105,2024-02-24 00:16:00,175.04,175.09,175.14,175.01,213472.0,37316096.0,1708704960,,,1.0,,,,,,,,7.088758613151839,-24.91841361880724,0.8554285714285673,116.54098037044416,-8.951230053264489,1,0,49390.86500000004,175.04:283.0;,175.04:283.0;,,0.0,175.04;
109,2024-02-24 00:20:00,174.98,175.14,175.253,174.98,108628.0,18975232.0,1708705200,,,,,,,,,,,11.658445223595788,-24.97593130293626,0.8195714285714258,116.54098037044416,71.50526147991538,0,0,98910.20500000005,,,174.98:283.0;,-16.980000000000643,
39,2024-02-28 23:10:00,174.206,174.17,174.21,174.16,158020.0,27521664.0,1709133000,1.0,,,,,,,,,,-5.954814438654971,16.554889618960743,0.7662857142857129,39.278728479350406,-74.498888547999,1,0,49609.90700000005,174.206:283.0;,174.206:283.0;,,0.0,174.206;
51,2024-02-28 23:22:00,174.407,174.59,174.59,174.32,146479.0,25529856.0,1709133720,,,,,,,,,,,33.023095077021296,8.137081888547442,0.7994285714285699,39.278728479350406,10.785669310338642,0,0,98967.08800000005,,,174.407:283.0;,56.88300000000618,
9,2024-03-12 21:40:00,196.85,196.32,196.855,196.17,423109.0,83123584.0,1710250800,,,,,,,1.0,,1.0,,26.999784993589145,17.524065610678534,1.125785714285716,-3.9114402016431953,-73.91257109907922,1,0,49557.73800000005,196.85:251.0;,196.85:251.0;,,0.0,196.85;
10,2024-03-12 21:41:00,196.27,196.035,196.27,195.899,279216.0,54769024.0,1710250860,,,,,,,,,,,20.73121126695611,17.524065610678534,1.125785714285716,-3.9114402016431953,-75.58744906515496,0,0,98821.50800000006,,,196.27:251.0;,-145.579999999996,
20,2024-03-12 21:51:00,195.78,196.43,196.43,195.64,467059.0,91544064.0,1710251460,,,,,1.0,,,,,,-2.029171721689238,15.001582446662113,1.3146428571428612,-3.9114402016431953,-70.85860290641439,1,0,49484.94800000006,195.78:252.0;,195.78:252.0;,,0.0,195.78;
31,2024-03-12 22:02:00,197.76,198.29,198.29,197.76,266474.0,52778240.0,1710252120,,1.0,,,,,,,,,37.49299362542291,25.37913250843144,1.4525000000000026,-3.6438683558792206,75.640685169768,0,1,74402.70800000006,195.78:126.0;,,197.76:126;,249.4799999999987,198.01;
40,2024-03-12 22:11:00,198.27,198.29,198.29,198.21,226767.0,44952832.0,1710252660,,,,,,,,,,,57.92835885995245,34.6932801177123,1.519357142857148,-3.6438683558792206,69.45419906137091,0,0,99384.72800000006,,,198.27:126.0;,313.74000000000115,
46,2024-03-13 22:17:00,193.74,192.89,193.74,192.72,630604.0,121919744.0,1710339420,,,,,,,1.0,,,,-9.137940720946707,7.92997283383383,1.781785714285712,19.01633858366704,-76.267981926428,1,0,49787.28800000006,193.74:256.0;,193.74:256.0;,,0.0,193.74;
47,2024-03-13 22:18:00,192.77,193.2,193.445,192.77,541380.0,104612352.0,1710339480,,,,,,,,,,,-8.083416524204686,7.92997283383383,1.781785714285712,19.01633858366704,-76.92575843259094,0,0,99136.40800000005,,,192.77:256.0;,-248.3199999999997,
224,2024-03-15 01:15:00,189.269,189.588,189.588,189.269,313968.0,59442176.0,1710436500,,,,,1.0,,,,,,-8.943914184708397,-7.570935713937402,0.5745714285714294,3.077444843068413,-77.61653075194118,1,0,49737.19900000005,189.269:261.0;,189.269:261.0;,,0.0,189.269;
226,2024-03-15 01:17:00,189.2,189.24,189.38,189.2,180256.0,34085888.0,1710436620,,,,,,,,,,,-10.793033771867712,-7.570935713937402,0.5745714285714294,3.077444843068413,-76.39556669723055,0,0,99118.39900000005,,,189.2:261.0;,-18.00900000000439,
233,2024-03-15 01:24:00,188.665,188.74,188.84,188.665,213272.0,40226304.0,1710437040,,,,,,,1.0,,,,-9.345607196518031,-9.546639127305568,0.5794285714285711,3.077444843068413,-72.50083220714879,1,0,49688.16900000005,188.665:262.0;,188.665:262.0;,,0.0,188.665;
238,2024-03-15 01:29:00,188.664,188.599,188.81,188.41,218524.0,41199616.0,1710437340,,,,,,,,,,,-1.3354745664119818,-9.827235122199871,0.589499999999999,3.077444843068413,44.47070547107837,0,0,99118.13700000005,,,188.664:262.0;,-0.262000000001251,
255,2024-03-15 01:46:00,187.13,186.49,187.13,186.49,418732.0,78171136.0,1710438360,,,1.0,,,,,,,,-2.70672041907342,-12.502001150037202,0.7312142857142833,1.5097187397147067,-68.04833937345678,1,0,49715.81700000005,187.13:264.0;,187.13:264.0;,,0.0,187.13;
256,2024-03-15 01:47:00,186.645,186.86,186.86,186.34,323736.0,60331008.0,1710438420,,,,,,,,,,,-0.8445673371211591,-12.502001150037202,0.7312142857142833,1.5097187397147067,-73.43181221880147,0,0,98990.09700000005,,,186.645:264.0;,-128.0399999999961,
9,2024-03-18 21:40:00,191.06,191.33,191.33,191.06,216133.0,41322560.0,1710769200,1.0,,,,,,,,,,7.771526281811717,17.044662432253006,0.9956428571428546,48.93190812100134,-69.72488809110588,1,0,49505.55700000005,191.06:259.0;,191.06:259.0;,,0.0,191.06;
18,2024-03-18 21:49:00,191.362,191.29,191.362,190.93,332773.0,63580160.0,1710769740,,,,,,,,,,,18.39105783865046,13.931311695253669,1.0134999999999954,48.93190812100134,33.79278473129402,0,0,99068.31500000006,,,191.362:259.0;,78.21799999999806,
24,2024-03-18 21:55:00,189.79,190.05,190.075,189.72,252230.0,47870336.0,1710770100,,,,,,,,,1.0,,9.808999827034398,7.706237261736788,1.1832857142857085,48.93190812100134,-70.85132389532475,1,0,49722.91500000006,189.79:260.0;,189.79:260.0;,,0.0,189.79;
27,2024-03-18 21:58:00,189.51,189.08,189.51,188.998,269061.0,50910080.0,1710770280,,,,,,,,,,,5.137664049479014,7.706237261736788,1.1832857142857085,48.93190812100134,-70.37473262929925,0,0,98995.51500000006,,,189.51:260.0;,-72.8000000000003,
33,2024-03-18 22:04:00,189.041,189.263,189.304,189.041,206099.0,39003904.0,1710770640,,,,,,,1.0,,,,-0.2648129359289299,1.58105314402259,1.25471428571428,46.86988489485077,-74.89380057640393,1,0,49655.81400000006,189.041:261.0;,189.041:261.0;,,0.0,189.041;
47,2024-03-18 22:18:00,190.676,190.361,190.89,190.361,200734.0,38277632.0,1710771480,,,,,,,,,,,49.834956730485374,4.645552696824282,1.3922857142857117,46.86988489485077,75.37586439892856,0,0,99422.25000000006,,,190.676:261.0;,426.7349999999976,
33,2024-03-19 22:04:00,180.05,180.27,180.414,180.05,300512.0,54156800.0,1710857040,,,,,,,,,1.0,,-6.590789284830954,19.16588596820212,1.89357142857143,47.86733615133008,-76.7541806585444,1,0,49728.450000000055,180.05:276.0;,180.05:276.0;,,0.0,180.05;
40,2024-03-19 22:11:00,180.36,180.52,180.61,180.36,190580.0,34430976.0,1710857460,,,,,,,,,,,1.5758309533289,8.393570556511065,1.9855,47.86733615133008,-11.151836993011509,0,0,99507.81000000006,,,180.36:276.0;,85.56000000000063,
52,2024-03-19 22:23:00,178.447,178.251,178.75,178.251,371030.0,66277888.0,1710858180,,,,,,,1.0,,,,-0.2501415270881502,-1.0363515187528949,2.071000000000002,47.86733615133008,-76.41390503440005,1,0,49899.54400000005,178.447:278.0;,178.447:278.0;,,0.0,178.447;
83,2024-03-19 22:54:00,178.92,178.519,178.92,178.519,212038.0,37826560.0,1710860040,,,,,,,,,,,51.06914330945792,-13.2911256821875,0.9787857142857164,39.467364705773534,80.54720883861751,0,0,99639.30400000005,,,178.92:278.0;,131.49399999999576,
135,2024-03-20 23:46:00,178.81,178.95,179.0,178.712,163022.0,29147648.0,1710949560,,,,,,,1.0,,1.0,,-1.420561315948504,-6.716192648527922,0.5561428571428634,12.101640015918989,-75.08344231867771,1,0,49930.12400000005,178.81:278.0;,178.81:278.0;,,0.0,178.81;
138,2024-03-20 23:49:00,178.371,178.185,178.428,178.185,279986.0,49918976.0,1710949740,,,,,,,,,,,-6.545850397785578,-6.716192648527922,0.5561428571428634,12.101640015918989,-75.85066526372678,0,0,99517.26200000005,,,178.371:278.0;,-122.04199999999804,
167,2024-03-21 00:18:00,176.263,176.01,176.3,176.01,270026.0,47522816.0,1710951480,,,,,1.0,,,,,,-3.636424223640507,-12.575823589203551,0.595000000000005,9.330798418831762,-74.06228557096293,1,0,49811.09600000004,176.263:282.0;,176.263:282.0;,,0.0,176.263;
169,2024-03-21 00:20:00,175.998,176.258,176.29,175.998,237086.0,41697280.0,1710951600,,,,,,,,,,,-3.3691768576180827,-13.015536540880206,0.5897142857142877,9.330798418831762,-76.19919427397858,0,0,99442.53200000004,,,175.998:282.0;,-74.73000000000417,
16,2024-03-22 21:47:00,177.261,177.17,177.261,176.91,253075.0,44816512.0,1711115220,1.0,,,,,,,,,,11.169955472337875,3.523101844216981,0.7406428571428592,43.05166038445564,-74.16885644830546,1,0,49809.452000000034,177.261:280.0;,177.261:280.0;,,0.0,177.261;
18,2024-03-22 21:49:00,176.572,176.317,176.572,176.317,278848.0,49210496.0,1711115340,,,,,,,,,,,4.712387141871048,3.523101844216981,0.7406428571428592,43.05166038445564,-75.59377475673541,0,0,99249.61200000004,,,176.572:280.0;,-192.91999999999803,
24,2024-03-22 21:55:00,175.8,176.06,176.06,175.8,237740.0,41796352.0,1711115700,,,,,,,,,1.0,,-4.261083190215835,-0.9905706277262568,0.8545000000000016,43.05166038445564,-77.82084897165103,1,0,49674.01200000003,175.8:282.0;,175.8:282.0;,,0.0,175.8;
38,2024-03-22 22:09:00,175.505,175.4,175.505,175.355,322713.0,56604416.0,1711116540,,,,,,,,,,,5.413574111018491,-2.7777915103192186,0.9015714285714296,39.515475369729984,-60.53519813198567,0,0,99166.42200000002,,,175.505:282.0;,-83.19000000000449,
41,2024-03-22 22:12:00,175.15,175.175,175.205,175.13,313057.0,54804736.0,1711116720,,,,,,,1.0,,,,0.3106044006518544,-5.253809539635824,0.963785714285712,39.515475369729984,-75.07943960718555,1,0,49598.972000000016,175.15:283.0;,175.15:283.0;,,0.0,175.15;
45,2024-03-22 22:16:00,175.376,175.76,175.76,175.23,207975.0,36482560.0,1711116960,,,,,,,,,,,2.178556179681763,-6.3607742659755,0.9736428571428531,39.515475369729984,-70.56158355663064,0,0,99230.38000000002,,,175.376:283.0;,63.95799999999974,
14,2024-03-26 21:45:00,177.68,177.79,177.895,177.68,240920.0,42833728.0,1711460700,1.0,,,,,,,,1.0,,18.30720048095975,-2.368302882834058,0.826357142857144,59.95829469772521,-71.88856694244821,1,0,49657.66000000002,177.68:279.0;,177.68:279.0;,,0.0,177.68;
17,2024-03-26 21:48:00,177.351,177.585,177.77,177.351,269485.0,47858304.0,1711460880,,,,,,,,,,,10.146111873851844,-2.368302882834058,0.826357142857144,59.95829469772521,-73.00878010146327,0,0,99138.589,,,177.351:279.0;,-91.79100000000216,
5,2024-03-27 21:36:00,178.933,179.391,179.45,178.933,260198.0,46629024.0,1711546560,1.0,,,,,,,,,,51.6779422402437,-8.382952773848515,0.7522142857142862,68.10665950840648,82.96175073509336,1,0,49574.14800000001,178.933:277.0;,178.933:277.0;,,0.0,178.933;
7,2024-03-27 21:38:00,178.352,178.24,178.42,178.125,261737.0,46665056.0,1711546680,,,,,,,,,,,48.419588062299006,-8.382952773848515,0.7522142857142862,68.10665950840648,79.51772274031251,0,0,98977.652,,,178.352:277.0;,-160.9369999999969,
34,2024-03-27 22:05:00,176.445,176.836,177.074,176.445,334928.0,59145216.0,1711548300,,,,,,,1.0,,1.0,,18.93508223690573,-2.526777277961642,1.2857142857142816,65.93417266229858,-76.76060102413716,1,0,49573.052,176.445:280.0;,176.445:280.0;,,0.0,176.445;
40,2024-03-27 22:11:00,176.334,176.165,176.57,176.165,265324.0,46807040.0,1711548660,,,,,,,,,,,2.978377379602634,-4.200856048459187,1.321071428571427,65.93417266229858,-75.73649266603158,0,0,98946.57200000001,,,176.334:280.0;,-31.0799999999972,
11,2024-04-04 21:42:00,181.075,180.858,181.18,180.858,340971.0,61745088.0,1712238120,1.0,,,,,,,,,,57.4137287673924,9.513302307819744,0.7115714285714277,64.49015304402799,29.006307231592185,1,0,49513.097000000016,181.075:273.0;,181.075:273.0;,,0.0,181.075;
14,2024-04-04 21:45:00,180.5,180.37,180.5,180.31,295704.0,53352576.0,1712238300,,,,,,,,,,,44.51708597473628,6.019123498194247,0.7547142857142859,64.49015304402799,-30.03008442034957,0,0,98789.59700000001,,,180.5:273.0;,-156.9749999999969,
31,2024-04-04 22:02:00,179.79,179.95,179.95,179.72,268703.0,48318976.0,1712239320,,,,,1.0,,,,,,-3.6295032607654103,-6.584556075408798,0.7707857142857141,63.20318049472737,-74.79765440525024,1,0,49347.34700000001,179.79:275.0;,179.79:275.0;,,0.0,179.79;
41,2024-04-04 22:12:00,179.08,179.19,179.25,179.08,305230.0,54704896.0,1712239920,,,,,,,,,,,-3.660956139217824,-10.594886545584288,0.7620714285714273,63.20318049472737,-69.20272222904235,0,0,98594.34700000001,,,179.08:275.0;,-195.24999999999437,
51,2024-04-04 22:22:00,178.92,179.025,179.025,178.92,86543.0,15491584.0,1712240520,,,,,,,1.0,,,,-4.999324994549262,-16.417089372985075,0.8124285714285691,63.20318049472737,-75.77933737616266,1,0,49212.42700000001,178.92:276.0;,178.92:276.0;,,0.0,178.92;
65,2024-04-04 22:36:00,178.94,178.86,178.94,178.78,184754.0,33056768.0,1712241360,,,,,,,,,,,13.263082880958253,-19.42392363220941,0.859571428571426,61.62715916615204,-64.21565182238416,0,0,98599.86700000001,,,178.94:276.0;,5.520000000002824,
80,2024-04-04 22:51:00,178.231,178.058,178.235,178.058,238204.0,42453248.0,1712242260,,,,,,,,,1.0,,19.97754877813264,-19.22595492569141,0.6075714285714265,61.62715916615204,-70.32590581213206,1,0,49229.88000000001,178.231:277.0;,178.231:277.0;,,0.0,178.231;
87,2024-04-04 22:58:00,177.93,178.09,178.09,177.93,220114.0,39209216.0,1712242680,,,,,,,,,,,10.626074828633593,-19.937993320095885,0.5700714285714261,61.62715916615204,-66.76138605888933,0,0,98516.49000000002,,,177.93:277.0;,-83.3769999999966,
287,2024-04-05 02:18:00,174.785,174.44,174.785,174.44,268716.0,46902272.0,1712254680,,,,,1.0,,,,,,3.531093653166661,-5.679597626397378,0.2725714285714267,35.87370811841496,-60.711706644946425,1,0,49052.33500000002,174.785:283.0;,174.785:283.0;,,0.0,174.785;
288,2024-04-05 02:19:00,174.21,174.03,174.21,174.03,522192.0,90856448.0,1712254740,,,,,,,,,,,1.93131902077549,-5.679597626397378,0.2725714285714267,35.87370811841496,-70.9792882118381,0,0,98353.76500000001,,,174.21:283.0;,-162.72499999999678,
306,2024-04-05 02:37:00,171.515,171.635,171.65,171.36,396932.0,68099072.0,1712255820,,,1.0,,,,,,,,0.4362627638838283,-5.350823137540012,0.5511428571428516,29.88020046244277,41.44879589891491,1,0,48957.44500000002,171.515:288.0;,171.515:288.0;,,0.0,171.515;
310,2024-04-05 02:41:00,171.29,171.65,171.65,171.29,229508.0,39385088.0,1712256060,,,,,,,,,,,6.978885275024531,-3.8727552386936033,0.5998571428571385,29.88020046244277,81.3347008007168,0,0,98288.96500000003,,,171.29:288.0;,-64.79999999999836,
9,2024-04-05 21:40:00,166.416,165.65,166.416,165.65,356175.0,59117312.0,1712324400,1.0,,,,,,,,1.0,,62.09269975344692,6.437300990801612,1.2772142857142836,-0.5337776976822681,70.22639743771833,1,0,49196.245000000024,166.416:295.0;,166.416:295.0;,,0.0,166.416;
10,2024-04-05 21:41:00,165.78,166.34,166.34,165.63,417385.0,69257472.0,1712324460,,,,,,,,,,,58.92838555596175,6.437300990801612,1.2772142857142836,-0.5337776976822681,36.17387112891152,0,0,98101.34500000003,,,165.78:295.0;,-187.61999999999873,
6,2024-04-08 21:37:00,167.59,167.456,167.59,167.41,228810.0,38320480.0,1712583420,1.0,,,,,,,,,,10.752057429007436,-2.4457283029810526,0.6546428571428545,30.657945219298576,-68.54618300165595,1,0,49165.06500000003,167.59:292.0;,167.59:292.0;,,0.0,167.59;
10,2024-04-08 21:41:00,166.85,167.07,167.2,166.85,352184.0,58826624.0,1712583660,,,,,,,,,,,2.220144566971463,-5.878251518608565,0.6799285714285678,30.657945219298576,-73.08826025499604,0,0,97885.26500000003,,,166.85:292.0;,-216.08000000000266,
217,2024-04-11 01:08:00,164.965,165.02,165.04,164.965,143796.0,23683584.0,1712768880,,,,,,,1.0,,,,36.41848749589204,-12.194755797951215,0.4401428571428596,23.33766552287893,-73.88412224140889,1,0,49055.62500000003,164.965:296.0;,164.965:296.0;,,0.0,164.965;
220,2024-04-11 01:11:00,164.671,164.69,164.7,164.66,196008.0,32247808.0,1712769060,,,,,,,,,,,19.35937345209848,-13.308948843177395,0.444428571428574,23.33766552287893,-76.29243417111888,0,0,97798.24100000002,,,164.671:296.0;,-87.0240000000033,
201,2024-04-13 00:52:00,162.65,162.7,162.711,162.65,122152.0,19874304.0,1712940720,,,,,1.0,,,,,,-9.02047655610466,0.6413985427916913,0.4564285714285745,57.09077507780365,-75.6730701686504,1,0,49003.24100000002,162.65:300.0;,162.65:300.0;,,0.0,162.65;
203,2024-04-13 00:54:00,162.55,162.45,162.62,162.425,145564.0,23659008.0,1712940840,,,,,,,,,,,-7.176884544583139,0.6413985427916913,0.4564285714285745,57.09077507780365,-67.42216264116111,0,0,97768.24100000002,,,162.55:300.0;,-29.999999999998295,
86,2024-04-17 22:57:00,160.28,160.256,160.28,160.09,146690.0,23521536.0,1713365820,,,,,,,1.0,,1.0,,30.355264704297756,0.860878498858952,0.699928571428576,39.352191117724566,-74.59224803094747,1,0,49043.12100000002,160.28:304.0;,160.28:304.0;,,0.0,160.28;
96,2024-04-17 23:07:00,161.11,161.164,161.22,161.09,174372.0,28107776.0,1713366420,,,,,,,,,,,51.6323508371115,-0.0015672670698734,0.6822857142857198,35.37735107125749,77.43578564265727,0,0,98020.56100000002,,,161.11:304.0;,252.3200000000038,
161,2024-04-18 00:12:00,158.07,158.065,158.167,157.99,230228.0,36378112.0,1713370320,,,,,1.0,,,,,,-0.8803302962671111,-14.806339374418954,0.56407142857143,26.372293159074253,49.37263759807631,1,0,49176.93100000002,158.07:309.0;,158.07:309.0;,,0.0,158.07;
163,2024-04-18 00:14:00,157.8,157.8,157.88,157.775,175244.0,27658240.0,1713370440,,,,,,,,,,,3.715911299743869,-14.806339374418954,0.56407142857143,26.372293159074253,78.85556389392873,0,0,97937.13100000002,,,157.8:309.0;,-83.42999999999438,
334,2024-04-18 03:05:00,155.285,155.16,155.31,155.16,188736.0,29279232.0,1713380700,,,1.0,,,,,,,,13.167528991520328,7.421008269899708,0.5769285714285713,9.166379870143553,-77.20130407227592,1,0,49177.641000000025,155.285:314.0;,155.285:314.0;,,0.0,155.285;
338,2024-04-18 03:09:00,155.0,155.29,155.34,155.0,179580.0,27884544.0,1713380940,,,,,,,,,,,0.4076477441458337,7.421008269899708,0.5769285714285713,9.166379870143553,-78.0635729668953,0,0,97847.64100000003,,,155.0:314.0;,-89.48999999999893,
3,2024-04-18 21:34:00,155.798,155.21,155.798,155.21,345293.0,53706944.0,1713447240,1.0,,,,,,,,,,45.11968464278113,11.94078269738829,0.6491428571428567,-0.4818555438155272,76.20644419191413,1,0,48927.06900000003,155.798:314.0;,155.798:314.0;,,0.0,155.798;
5,2024-04-18 21:36:00,155.04,154.13,155.04,154.13,299491.0,46321152.0,1713447360,,,,,,,,,,,41.45288876670279,16.95270135617705,0.887357142857141,-0.4818555438155272,76.40840236435092,0,0,97609.62900000003,,,155.04:314.0;,-238.01200000000307,
8,2024-04-18 21:39:00,153.93,153.078,153.93,152.927,498435.0,76455040.0,1713447540,,,,,,,1.0,,1.0,,25.09851857449009,16.95270135617705,0.887357142857141,-0.4818555438155272,-43.06001069352514,1,0,48813.819000000025,153.93:317.0;,153.93:317.0;,,0.0,153.93;
9,2024-04-18 21:40:00,152.971,152.65,153.04,152.639,429481.0,65659520.0,1713447600,,,,,,,,,,,19.789116281689186,14.197892867211262,1.0188571428571396,-0.4818555438155272,-64.75908143680395,0,0,97305.62600000002,,,152.971:317.0;,-304.003000000001,
111,2024-04-19 23:22:00,150.087,150.17,150.25,150.087,140322.0,21108224.0,1713540120,,,,,,,,,1.0,,4.270514590605757,4.354585145658525,0.6879285714285714,20.20684341523017,-70.09484823614564,1,0,48677.438000000024,150.087:324.0;,150.087:324.0;,,0.0,150.087;
115,2024-04-19 23:26:00,149.65,149.6,149.69,149.6,178658.0,26747136.0,1713540360,,,,,,,,,,,-1.8098350747414929,1.260802914110343,0.6699285714285728,20.20684341523017,-71.99639615401051,0,0,97164.03800000003,,,149.65:324.0;,-141.58799999999462,
119,2024-04-19 23:30:00,149.55,149.72,149.72,149.49,163760.0,24518656.0,1713540600,,,,,,,1.0,,,,-4.370951310058956,-0.5251911721827511,0.646642857142857,17.53279218582127,-74.98473917893031,1,0,48560.28800000002,149.55:325.0;,149.55:325.0;,,0.0,149.55;
133,2024-04-19 23:44:00,149.487,149.5,149.51,149.431,134858.0,20139008.0,1713541440,,,,,,,,,,,1.448732529019047,-3.545555564204541,0.5939285714285713,17.53279218582127,-38.98901352305205,0,0,97143.56300000002,,,149.487:325.0;,-20.475000000005394,
338,2024-04-20 03:09:00,145.89,146.001,146.045,145.83,139980.0,20401152.0,1713553740,,,1.0,,,,,,,,9.126013694986778,4.695131965757582,0.6077857142857174,6.663166768538449,-53.353843698293645,1,0,48562.19300000003,145.89:333.0;,145.89:333.0;,,0.0,145.89;
351,2024-04-20 03:22:00,146.41,146.19,146.41,146.19,157616.0,23011328.0,1713554520,,,,,,,,,,,64.5291408415319,12.050317699167852,0.5827857142857198,6.663166768538449,79.31185559746532,0,0,97316.72300000003,,,146.41:333.0;,173.1600000000034,
100,2024-04-24 23:11:00,151.8,151.79,151.87,151.77,150396.0,22843136.0,1713971460,,,,,1.0,,,,,,-5.150647679792012,2.5336188473148127,0.5703571428571479,89.93468341973791,-77.9319790036534,1,0,48740.72300000003,151.8:320.0;,151.8:320.0;,,0.0,151.8;
106,2024-04-24 23:17:00,151.72,151.46,151.75,151.46,153060.0,23223040.0,1713971820,,,,,,,,,,,-0.1461723072421676,-1.8879726546408195,0.523214285714289,89.93468341973791,-71.85079795708937,0,0,97291.12300000002,,,151.72:320.0;,-25.600000000004002,
9,2024-04-29 21:40:00,158.1,157.81,158.1,157.81,174941.0,27631872.0,1714398000,1.0,,,,,,,,1.0,,60.05161141164628,8.592885717362492,0.6587857142857091,98.52915223345629,-42.80542290235972,1,0,48754.423000000024,158.1:307.0;,158.1:307.0;,,0.0,158.1;
10,2024-04-29 21:41:00,157.515,157.94,157.942,157.515,228982.0,36123840.0,1714398060,,,,,,,,,,,53.64600724798787,8.592885717362492,0.6587857142857091,98.52915223345629,-58.3475759864629,0,0,97111.52800000002,,,157.515:307.0;,-179.59500000000244,
199,2024-05-01 00:50:00,159.14,159.11,159.14,159.03,135462.0,21553664.0,1714495800,,,,,1.0,,,,,,-14.541386372652212,19.3047990900742,0.3698571428571406,90.0947812961592,-76.98903043429017,1,0,48573.82800000002,159.14:305.0;,159.14:305.0;,,0.0,159.14;
204,2024-05-01 00:55:00,159.205,159.425,159.425,159.205,71772.0,11429376.0,1714496100,,,,,,,,,,,-5.602047605320074,15.033839922230342,0.3534285714285699,90.0947812961592,-64.57417099497364,0,0,97131.35300000003,,,159.205:305.0;,19.825000000007975,
88,2024-05-01 22:59:00,146.258,146.031,146.258,145.855,552206.0,80603136.0,1714575540,,,,,,,,,1.0,,17.507788371853692,11.965453357176358,1.0008571428571449,53.90060377734761,-74.41521812215171,1,0,48573.69700000003,146.258:332.0;,146.258:332.0;,,0.0,146.258;
94,2024-05-01 23:05:00,145.348,145.38,145.46,145.31,326780.0,47413248.0,1714575900,,,,,,,,,,,1.9586949507670823,6.704412820280297,0.8658571428571439,42.66464975195095,-77.43794737319192,0,0,96829.23300000004,,,145.348:332.0;,-302.11999999999887,
97,2024-05-01 23:08:00,145.435,145.22,145.435,145.22,224664.0,32568320.0,1714576080,,,,,1.0,,1.0,,,,0.3437447301663852,6.704412820280297,0.8658571428571439,42.66464975195095,-75.20222762000463,1,0,48399.37800000003,145.435:333.0;,145.435:333.0;,,0.0,145.435;
98,2024-05-01 23:09:00,145.02,144.76,145.02,144.76,316376.0,45761024.0,1714576140,,,,,,,,,,,-1.829762956411564,6.704412820280297,0.8658571428571439,42.66464975195095,-74.28754710661917,0,0,96691.03800000003,,,145.02:333.0;,-138.19499999999735,
308,2024-05-08 02:39:00,153.93,154.03,154.03,153.87,80104.0,12327424.0,1715107140,,,,,,,,,1.0,,6.951499288441013,-13.515952547371356,0.2822857142857101,103.95166966054865,-61.2566943086631,1,0,48357.018000000025,153.93:314.0;,153.93:314.0;,,0.0,153.93;
313,2024-05-08 02:44:00,153.84,153.94,153.952,153.84,75436.0,11616256.0,1715107440,,,,,,,,,,,14.279513363823312,-14.767294877542838,0.2922857142857132,103.95166966054865,12.140698866518331,0,0,96662.77800000002,,,153.84:314.0;,-28.26000000000107,
380,2024-05-14 03:51:00,150.675,150.8,150.8,150.675,123710.0,18666496.0,1715629860,,,,,,,,,1.0,,-12.604885077758569,-8.675624606171084,0.2079285714285695,22.26875739343296,-76.51386075842751,1,0,96662.77800000002,,,,0.0,
381,2024-05-14 03:52:00,150.76,150.64,150.76,150.64,126136.0,19028224.0,1715629920,,,,,1.0,,,,,,-12.148184976108688,-8.675624606171084,0.2079285714285695,22.26875739343296,-70.50547147479061,1,0,96662.77800000002,,,,0.0,
7,2024-05-14 21:38:00,149.295,148.895,149.295,148.895,213757.0,31882944.0,1715693880,1.0,,,,,,,,,,8.254220372353487,-9.92521609504736,0.361142857142858,24.36921900308965,-63.1374186238229,1,0,48440.493000000024,149.295:323.0;,149.295:323.0;,,0.0,149.295;
8,2024-05-14 21:39:00,148.974,149.04,149.19,148.97,239472.0,35694560.0,1715693940,,,,,,,,,,,6.847612915481584,-9.92521609504736,0.361142857142858,24.36921900308965,-71.7151581463764,0,0,96559.09500000003,,,148.974:323.0;,-103.68299999999934,
379,2024-05-17 03:50:00,162.965,162.825,162.965,162.825,96432.0,15737856.0,1715889000,,,,,,,,,1.0,,-15.256871274658366,-24.730046853715592,0.3172142857142859,103.38611292889856,-76.68764558168851,1,0,96559.09500000003,,,,0.0,
6,2024-05-17 21:37:00,167.56,168.544,168.647,167.56,1027938.0,172952448.0,1715953020,1.0,,,,,,,,,,63.96716472391943,-11.992767467641698,0.9095714285714313,84.69669870137412,82.34037486081291,1,0,48301.81500000003,167.56:288.0;,167.56:288.0;,,0.0,167.56;
9,2024-05-17 21:40:00,168.55,168.96,169.069,168.55,468346.0,79066624.0,1715953200,,1.0,,,,,,,,,84.89699637965151,3.264161630202437,1.1083571428571466,84.69669870137412,81.67612948907941,0,1,96844.21500000003,,,168.55:144;168.55:144.0;,142.5600000000013,
19,2024-05-17 21:50:00,165.894,165.66,165.894,165.66,299480.0,49701632.0,1715953800,,,,,,,,,1.0,,81.59014458049073,17.17891265287078,1.3493571428571485,84.69669870137412,36.05505541475474,1,0,48569.06100000002,165.894:291.0;,165.894:291.0;,,0.0,165.894;
25,2024-05-17 21:56:00,165.53,165.704,165.704,165.215,464136.0,76817152.0,1715954160,,,,,,,,,,,67.99299440328377,20.732397913137603,1.3768571428571477,84.69669870137412,-13.840357353485436,0,0,96738.29100000003,,,165.53:291.0;,-105.92400000000126,
276,2024-05-18 02:07:00,163.23,163.26,163.313,163.221,102928.0,16805376.0,1715969220,,,,,1.0,,,,,,-0.6840882117418055,-6.700545706339483,0.3198571428571455,75.18137250287077,-63.36431509081287,1,0,48585.44100000003,163.23:295.0;,163.23:295.0;,,0.0,163.23;
278,2024-05-18 02:09:00,163.17,163.115,163.2,163.1,86824.0,14169088.0,1715969340,,,,,,,,,,,-0.0614237516649396,-6.700545706339483,0.3198571428571455,75.18137250287077,-21.922529497183756,0,0,96720.59100000001,,,163.17:295.0;,-17.70000000000067,
18,2024-05-21 21:49:00,163.65,163.63,163.65,163.305,161026.0,26332736.0,1716299340,1.0,,,,,,,,,,5.903202299365731,-4.540533463763055,0.6037142857142855,75.9047648570774,-68.09919273367538,1,0,48443.841000000015,163.65:295.0;,163.65:295.0;,,0.0,163.65;
26,2024-05-21 21:57:00,164.052,164.035,164.175,163.96,149776.0,24571008.0,1716299820,,,,,,,,,,,17.916213485135785,-4.80958213413038,0.6860714285714279,75.9047648570774,49.2193826751759,0,0,96839.18100000001,,,164.052:295.0;,118.58999999999611,
293,2024-05-23 02:24:00,164.59,164.565,164.63,164.54,83564.0,13732864.0,1716402240,,,,,,,1.0,,,,37.142764211302605,-5.303360251163284,0.4549999999999962,46.06254218148581,-32.34800857557067,1,0,48449.72100000001,164.59:294.0;,164.59:294.0;,,0.0,164.59;
297,2024-05-23 02:28:00,164.21,164.051,164.253,164.051,113232.0,18565120.0,1716402480,,,,,,,,,,,26.867048091203,-6.789136178807453,0.4915714285714228,46.06254218148581,-59.9910745140396,0,0,96727.46100000001,,,164.21:294.0;,-111.71999999999866,
87,2024-05-23 22:58:00,160.794,160.936,160.936,160.75,265084.0,42547712.0,1716476280,,,,,1.0,,,,,,-7.797096008912383,13.502734677276711,1.3486428571428573,39.8685852545137,-77.39637833893575,1,0,48489.261000000006,160.794:300.0;,160.794:300.0;,,0.0,160.794;
121,2024-05-23 23:32:00,163.23,163.541,163.541,163.21,205768.0,33616384.0,1716478320,,,,,,,,,,,116.1479904684427,9.769553736793164,0.9657857142857134,28.63553043148237,76.28610597781956,0,0,97458.261,,,163.23:300.0;,730.7999999999936,
18,2024-05-28 21:49:00,165.88,165.72,165.88,165.638,295864.0,49023872.0,1716904140,,,,,,,1.0,,1.0,,9.499247028437791,19.811586636000385,0.7898571428571444,58.90517358572834,-75.03676507354503,1,0,48855.421,165.88:293.0;,165.88:293.0;,,0.0,165.88;
20,2024-05-28 21:51:00,165.98,166.4,166.447,165.98,334023.0,55540352.0,1716904260,,,,,1.0,,,,,,10.552847267769906,16.18950680102145,0.8489285714285748,58.90517358572834,-69.32893278902493,1,0,223.28100000000268,165.88:293.0;165.98:293.0;,165.98:293.0;,,0.0,165.98;165.98;
29,2024-05-28 22:00:00,166.725,166.89,166.89,166.725,111180.0,18540928.0,1716904800,,,,,,,,,,,28.275805311471657,16.43671057839893,0.9370714285714306,61.11560735619808,49.82526409907753,0,0,97924.131,,,166.725:293.0;166.725:293.0;,465.870000000001,
8,2024-05-29 21:39:00,165.69,166.4,166.4,165.69,441460.0,73326272.0,1716989940,1.0,,,,,,,,1.0,,-8.273998940048116,-3.307914463256026,0.932071428571429,94.90902332517976,-76.91351018160897,1,0,49045.58099999999,165.69:295.0;,165.69:295.0;,,0.0,165.69;
10,2024-05-29 21:41:00,165.62,165.99,165.99,165.46,342272.0,56714944.0,1716990060,,,,,,,,,,,-9.471810964212525,-6.429300448459003,0.974642857142858,94.90902332517976,-75.3105527311521,0,0,97903.481,,,165.62:295.0;,-20.649999999997988,
20,2024-05-29 21:51:00,163.44,163.7,163.7,163.44,350295.0,57319680.0,1716990660,,,,,,,1.0,,,,-16.91686178640498,-13.35092510299107,1.1293571428571454,94.90902332517976,-78.05724035243256,1,0,49034.921,163.44:299.0;,163.44:299.0;,,0.0,163.44;
22,2024-05-29 21:53:00,163.757,164.02,164.1,163.73,557841.0,91421184.0,1716990780,,,,,1.0,,,,,,-14.693847730989916,-13.35092510299107,1.1293571428571454,94.90902332517976,-76.13190064132637,1,0,235.33499999999913,163.44:299.0;163.757:298.0;,163.757:298.0;,,0.0,163.757;163.757;
30,2024-05-29 22:01:00,164.03,164.06,164.222,163.975,258079.0,42345472.0,1716991260,,,,,,,,,,,-2.714991155338808,-15.4022173337638,1.1884285714285738,86.33410577286294,-52.96760506715109,0,0,98161.245,,,164.03:299.0;164.03:298.0;,257.7639999999999,
96,2024-05-31 23:07:00,162.83,162.85,162.88,162.78,91990.0,14994432.0,1717168020,,,,,,,1.0,,,,-2.032962571923868,-0.1041138900888682,1.000071428571429,25.568546070314028,-74.80858037874265,1,0,49149.41499999999,162.83:301.0;,162.83:301.0;,,0.0,162.83;
103,2024-05-31 23:14:00,162.35,162.35,162.395,162.35,120414.0,19560704.0,1717168440,,,,,,,,,,,-0.5724082662368204,-3.971166130711751,0.9665000000000004,25.568546070314028,-75.33267928983679,0,0,98016.76499999998,,,162.35:301.0;,-144.48000000000548,
164,2024-06-01 00:15:00,161.06,160.955,161.07,160.955,58792.0,9447936.0,1717172100,,,1.0,,,,,,,,13.347060451437065,-22.936733019804755,0.5057857142857115,13.990698362753037,-17.256953647542563,1,0,49054.52499999999,161.06:304.0;,161.06:304.0;,,0.0,161.06;
167,2024-06-01 00:18:00,160.666,160.83,160.885,160.666,109044.0,17513472.0,1717172280,,,,,,,,,,,10.22813142197434,-22.936733019804755,0.5057857142857115,13.990698362753037,-65.82680726751549,0,0,97896.98899999999,,,160.666:304.0;,-119.77600000000166,
166,2024-06-04 00:17:00,161.46,161.75,161.75,161.46,325540.0,52661760.0,1717431420,,,,,1.0,,,,,,-19.11484352638104,-3.372973321026137,0.6577857142857206,21.693208473837387,-77.80414576121626,1,0,48974.60899999998,161.46:303.0;,161.46:303.0;,,0.0,161.46;
173,2024-06-04 00:24:00,161.4,161.22,161.4,161.19,224968.0,36263424.0,1717431840,,,,,,,,,,,-13.093230457998397,-5.796844347861338,0.6548571428571494,21.693208473837387,-68.83419562329802,0,0,97878.80899999998,,,161.4:303.0;,-18.18000000000069,
126,2024-06-04 23:37:00,160.42,160.31,160.47,160.31,70784.0,11374080.0,1717515420,,,,,,,1.0,,,,-12.17617019501629,14.409061358232876,0.5832142857142851,25.892353391188717,-76.2752625378725,1,0,48950.70899999998,160.42:305.0;,160.42:305.0;,,0.0,160.42;
138,2024-06-04 23:49:00,160.5,160.535,160.535,160.38,93384.0,14996224.0,1717516140,,,,,,,,,,,9.666225079416847,8.842538295180702,0.5283571428571402,25.892353391188717,-61.17366350409037,0,0,97903.20899999997,,,160.5:305.0;,24.400000000003814,
20,2024-06-10 21:51:00,160.7,160.935,160.935,160.65,285114.0,45837696.0,1718027460,1.0,,,,,,,,,,-24.35428487984258,9.188634914263687,1.0064285714285697,91.33516961814624,-78.25960016876667,1,0,49050.40899999998,160.7:304.0;,160.7:304.0;,,0.0,160.7;
23,2024-06-10 21:54:00,160.6,160.52,160.68,160.39,325681.0,52273152.0,1718027640,,,,,,,,,,,-23.91891218171095,9.188634914263687,1.0064285714285697,91.33516961814624,-76.1389187132197,0,0,97872.80899999998,,,160.6:304.0;,-30.399999999998272,
247,2024-06-11 01:38:00,160.918,160.87,160.918,160.81,78600.0,12612608.0,1718041080,,,,,,,,,1.0,,0.8605595520648066,14.163264261327503,0.4199285714285748,33.50586437685445,-76.79583546776425,1,0,48953.73699999998,160.918:304.0;,160.918:304.0;,,0.0,160.918;
251,2024-06-11 01:42:00,160.68,161.06,161.11,160.652,220216.0,35379200.0,1718041320,,,,,,,,,,,-0.6887470186657794,11.164285747979278,0.4174285714285751,33.50586437685445,-76.76349042093082,0,0,97800.45699999998,,,160.68:304.0;,-72.35199999999986,
11,2024-06-11 21:42:00,158.84,159.16,159.16,158.84,259089.0,41178560.0,1718113320,1.0,,,,,,,,1.0,,28.376462614745307,13.2301488124903,0.6478571428571444,-6.803255848645449,-71.11840527690977,1,0,49036.576999999976,158.84:307.0;,158.84:307.0;,,0.0,158.84;
18,2024-06-11 21:49:00,159.675,160.055,160.082,159.675,200392.0,32062592.0,1718113740,,,,,,,,,,,43.69791517352111,15.229115892630992,0.7127857142857172,-6.803255848645449,59.71098555464075,0,0,98056.80199999998,,,159.675:307.0;,256.3450000000024,
31,2024-06-11 22:02:00,157.74,158.04,158.04,157.74,252934.0,39888000.0,1718114520,,,,,,,1.0,,,,2.5241696098220245,10.520683133269335,0.896642857142859,-11.93845833240522,-76.05731670853959,1,0,49157.40199999998,157.74:310.0;,157.74:310.0;,,0.0,157.74;
47,2024-06-11 22:18:00,158.07,158.15,158.15,158.07,175763.0,27790208.0,1718115480,,,,,,,,,,,30.82435624956382,15.918387155933118,0.9887142857142868,-11.93845833240522,58.66538998020937,0,0,98159.10199999998,,,158.07:310.0;,102.29999999999507,
363,2024-06-13 03:34:00,158.901,159.02,159.02,158.901,61064.0,9683968.0,1718220840,,,,,,,,,1.0,,20.126281535324736,10.803909497349863,0.609571428571426,29.108436563045014,-75.61982930246424,1,0,98159.10199999998,,,,0.0,
165,2024-06-19 00:16:00,153.79,153.858,153.905,153.71,146294.0,22507008.0,1718727360,,,,,,,,,1.0,,52.96290623200804,-15.738103443522904,0.4379285714285694,27.37807791156221,-66.48203507650413,1,0,49100.09199999999,153.79:319.0;,153.79:319.0;,,0.0,153.79;
169,2024-06-19 00:20:00,153.74,153.84,153.84,153.74,132230.0,20332032.0,1718727600,,,,,,,,,,,32.691604755632895,-16.193024703576803,0.429714285714283,27.37807791156221,-69.97878789022958,0,0,98143.152,,,153.74:319.0;,-15.94999999999456,
9,2024-06-24 21:40:00,158.971,159.265,159.265,158.9,190286.0,30268928.0,1719236400,1.0,,,,,,,,,,14.889527672986787,4.632244725434262,0.5810000000000011,55.6049010180123,-73.92919649449895,1,0,49180.084,158.971:308.0;,158.971:308.0;,,0.0,158.971;
11,2024-06-24 21:42:00,158.72,158.81,158.81,158.666,186784.0,29646816.0,1719236520,,,,,,,,,,,4.471806623003417,4.632244725434262,0.5810000000000011,55.6049010180123,-75.84735152832508,0,0,98065.84400000001,,,158.72:308.0;,-77.30800000000147,
21,2024-06-25 21:52:00,156.98,156.86,157.04,156.807,228435.0,35850368.0,1719323520,,,,,,,1.0,,,,-15.431900152302518,14.47289862804834,0.890500000000001,54.60294408541935,-75.37235157265643,1,0,49088.08400000002,156.98:312.0;,156.98:312.0;,,0.0,156.98;
31,2024-06-25 22:02:00,157.009,156.9,157.14,156.9,226877.0,35625984.0,1719324120,,,,,,,,,,,-3.1325592239228044,7.489438430952902,0.9144999999999998,49.02158756329841,-66.96817511404522,0,0,98074.89200000002,,,157.009:312.0;,9.047999999998865,
94,2024-06-26 23:05:00,157.48,157.47,157.5,157.47,68698.0,10811520.0,1719414300,,,,,,,1.0,,1.0,,-0.1782969224751411,9.419052376542908,0.5589285714285747,22.57191770818274,-75.50906128192949,1,0,49098.61200000002,157.48:311.0;,157.48:311.0;,,0.0,157.48;
101,2024-06-26 23:12:00,157.03,156.79,157.03,156.79,188668.0,29598720.0,1719414720,,,,,,,,,,,-7.343252316580639,3.832691486080705,0.5310000000000039,22.57191770818274,-78.08644581369992,0,0,97934.94200000002,,,157.03:311.0;,-139.94999999999646,
103,2024-06-26 23:14:00,156.96,156.9,156.995,156.865,114047.0,17899392.0,1719414840,,,,,1.0,,,,,,-6.84493894453697,3.832691486080705,0.5310000000000039,22.57191770818274,-77.6441061321817,1,0,48963.42200000002,156.96:312.0;,156.96:312.0;,,0.0,156.96;
114,2024-06-26 23:25:00,157.16,157.09,157.27,157.09,86614.0,13630208.0,1719415500,,,,,,,,,,,17.433726359236232,-5.903081702928105,0.5266428571428605,22.57191770818274,45.754451859089535,0,0,97997.34200000002,,,157.16:312.0;,62.39999999999645,
365,2024-06-29 03:36:00,160.98,160.925,161.117,160.925,152068.0,24456704.0,1719603360,,,,,1.0,,,,,,7.834002431980856,9.393261629740564,0.3252142857142875,84.11985093910631,-64.77415693152469,1,0,97997.34200000002,,,,0.0,
16,2024-07-01 21:47:00,157.245,156.415,157.245,156.415,386072.0,60497664.0,1719841620,,,,,,,,,1.0,,-9.779875204581671,15.797339818960552,0.9756428571428544,77.24452708159124,-78.58650647500113,1,0,49094.14700000002,157.245:311.0;,157.245:311.0;,,0.0,157.245;
17,2024-07-01 21:48:00,156.27,155.595,156.27,155.595,601500.0,93818880.0,1719841680,,,,,,,,,,,-12.126184370163829,15.797339818960552,0.9756428571428544,77.24452708159124,-78.79029055343638,0,0,97694.11700000003,,,156.27:311.0;,-303.2249999999982,
20,2024-07-01 21:51:00,155.248,155.12,155.248,154.995,402870.0,62441728.0,1719841860,,,,,,,1.0,,,,-16.68273213331227,11.223671343017571,1.094785714285712,77.24452708159124,-78.92297134146295,1,0,48790.99700000003,155.248:315.0;,155.248:315.0;,,0.0,155.248;
25,2024-07-01 21:56:00,154.665,154.95,154.95,154.665,250372.0,38731008.0,1719842160,,,,,,,,,,,-17.5060611851561,7.655265819362924,1.152714285714282,77.24452708159124,-77.4217188733445,0,0,97510.47200000004,,,154.665:315.0;,-183.6449999999995,
27,2024-07-01 21:58:00,155.29,155.6,155.655,155.155,305647.0,47472128.0,1719842280,,,,,1.0,,,,,,-14.936131142606284,7.655265819362924,1.152714285714282,77.24452708159124,-75.38932119652834,1,0,48594.12200000004,155.29:315.0;,155.29:315.0;,,0.0,155.29;
33,2024-07-01 22:04:00,155.295,155.1,155.37,155.1,232767.0,36098432.0,1719842640,,,,,,,,,,,-8.088417339628649,5.8267541596761845,1.2137857142857098,67.04011727682368,-60.34060068711857,0,0,97512.04700000004,,,155.295:315.0;,1.5749999999985675,
145,2024-07-11 23:56:00,177.98,177.9,177.98,177.805,98168.0,17437696.0,1720713360,,,1.0,,,,,,,,-3.39187084586888,-5.449603384290391,1.1190000000000018,67.60049461213723,-68.7309369474214,1,0,48923.50700000004,177.98:273.0;,177.98:273.0;,,0.0,177.98;
165,2024-07-12 00:16:00,178.795,178.56,178.795,178.53,66864.0,11931648.0,1720714560,,,,,,,,,,,55.72106175656029,-4.13171608090898,0.9580000000000024,62.35854910670392,78.43270273664812,0,0,97734.54200000004,,,178.795:273.0;,222.49499999999938,
278,2024-07-18 02:09:00,161.5,161.821,161.955,161.5,191356.0,30965248.0,1721239740,,,1.0,,,,,,,,-13.849712452508044,12.967614312060132,0.471428571428571,-12.464276384906997,-75.73678781470821,1,0,48961.542000000045,161.5:302.0;,161.5:302.0;,,0.0,161.5;
294,2024-07-18 02:25:00,162.125,162.045,162.18,162.045,72160.0,11696128.0,1721240700,,,,,,,,,,,40.86447599503032,18.22743172150477,0.4832142857142888,-12.464276384906997,52.61136328851765,0,0,97923.29200000004,,,162.125:302.0;,188.75,
6,2024-07-18 21:37:00,161.83,161.832,162.03,161.66,249412.0,40368576.0,1721309820,1.0,,,,,,,,,,44.78303280209055,15.44708415906467,1.0475714285714264,3.82604992862753,76.4323588223433,1,0,49050.63200000004,161.83:302.0;,161.83:302.0;,,0.0,161.83;
11,2024-07-18 21:42:00,161.098,160.89,161.323,160.89,223364.0,35980672.0,1721310120,,,,,,,,,,,46.75911699392708,21.57575759589476,1.087928571428569,3.82604992862753,56.0112428625663,0,0,97702.22800000005,,,161.098:302.0;,-221.0639999999998,
68,2024-07-18 22:39:00,157.125,156.995,157.16,156.92,273836.0,43013888.0,1721313540,,,,,1.0,,,,,,-7.187790223049635,11.562565248178174,1.3259285714285685,2.67911346693349,-76.31618097511057,1,0,48836.35300000005,157.125:311.0;,157.125:311.0;,,0.0,157.125;
71,2024-07-18 22:42:00,156.215,155.71,156.215,155.71,355452.0,55447552.0,1721313720,,,,,,,,,,,-5.909760676708199,10.824986348650429,1.1969999999999967,2.67911346693349,-72.58398213421675,0,0,97419.21800000005,,,156.215:311.0;,-283.00999999999897,
106,2024-07-18 23:17:00,155.15,155.13,155.15,154.73,425684.0,65962496.0,1721315820,,,1.0,,,,,,,,16.16183647531801,9.42992237133802,1.040142857142852,2.7170997706338422,-75.64323685795499,1,0,48546.96800000005,155.15:315.0;,155.15:315.0;,,0.0,155.15;
114,2024-07-18 23:25:00,154.48,154.3,154.48,154.3,254866.0,39300608.0,1721316300,,,,,,,,,,,2.6776136709066023,5.4327036477287365,1.0165714285714225,2.7170997706338422,-75.97819336524101,0,0,97208.16800000005,,,154.48:315.0;,-211.050000000005,
61,2024-07-19 22:32:00,152.72,152.55,152.759,152.55,145812.0,22255488.0,1721399520,,,,,,,,,1.0,,8.573400101086925,16.70147199449366,1.199714285714285,5.989826815535635,-74.63207580575248,1,0,48643.20800000005,152.72:318.0;,152.72:318.0;,,0.0,152.72;
64,2024-07-19 22:35:00,152.09,152.11,152.13,152.015,231681.0,35243776.0,1721399700,,,,,,,,,,,1.891223669676009,12.76625468072912,1.1495714285714282,5.989826815535635,-78.03179030593155,0,0,97007.82800000005,,,152.09:318.0;,-200.33999999999855,
65,2024-07-19 22:36:00,152.269,152.533,152.533,152.19,194157.0,29570944.0,1721399760,,,,,,,1.0,,,,3.3873054150476065,12.76625468072912,1.1495714285714282,5.989826815535635,-77.53412561409571,1,0,48434.01700000005,152.269:319.0;,152.269:319.0;,,0.0,152.269;
75,2024-07-19 22:46:00,152.265,152.585,152.585,152.265,142204.0,21710336.0,1721400360,,,,,,,,,,,17.03134913268405,9.92319621451314,0.9292142857142848,5.989826815535635,-48.0674838602533,0,0,97006.55200000005,,,152.265:319.0;,-1.2760000000060927,
298,2024-07-24 02:29:00,154.61,154.495,154.61,154.47,43544.0,6730752.0,1721759340,1.0,,,,,,,,,,21.7373499302131,6.406617026855926,0.2506428571428561,60.963598595280914,-74.82791153383756,1,0,48613.62200000005,154.61:313.0;,154.61:313.0;,,0.0,154.61;
302,2024-07-24 02:33:00,154.48,154.53,154.566,154.441,46450.0,7179776.0,1721759580,,,,,,,,,,,5.754099360975616,2.1530822435263417,0.2609285714285708,64.9375813438343,-76.36571441989939,0,0,96965.86200000005,,,154.48:313.0;,-40.69000000000747,
11,2024-07-24 21:42:00,151.54,151.42,151.648,151.321,165677.0,25090432.0,1721828520,1.0,,,,,,,,,,14.49213739697305,3.956526530048066,0.7528571428571463,68.28035227557146,-65.59748968775754,1,0,48624.60200000006,151.54:319.0;,151.54:319.0;,,0.0,151.54;
14,2024-07-24 21:45:00,151.18,151.271,151.271,151.165,102506.0,15492928.0,1721828700,,,,,,,,,,,4.732996174803105,1.958792060305079,0.7721428571428594,68.28035227557146,-74.73983285612705,0,0,96851.02200000006,,,151.18:319.0;,-114.83999999999529,
31,2024-07-24 22:02:00,150.305,150.125,150.495,150.125,179608.0,26992768.0,1721829720,,,,,,,1.0,,1.0,,-7.894469836275739,-1.5640333017841002,0.9779285714285736,58.7920194323272,-77.55047082150969,1,0,48452.812000000056,150.305:322.0;,150.305:322.0;,,0.0,150.305;
41,2024-07-24 22:12:00,150.212,150.13,150.27,150.13,118009.0,17719168.0,1721830320,,,,,,,,,,,0.2851269198871335,-0.5243491869374068,1.0082857142857191,58.7920194323272,-44.01579938437256,0,0,96821.07600000006,,,150.212:322.0;,-29.94600000000571,
159,2024-07-25 00:10:00,147.28,147.33,147.41,147.28,105396.0,15553280.0,1721837400,,,,,1.0,,,,,,-17.196802832587068,-2.4170701332798146,0.4577857142857137,33.96719414029114,-76.08301662384007,1,0,48365.95600000006,147.28:329.0;,147.28:329.0;,,0.0,147.28;
164,2024-07-25 00:15:00,147.28,147.29,147.34,147.27,81898.0,12082176.0,1721837700,,,,,,,,,,,-9.803910829017326,-2.787284807451797,0.4445714285714278,33.96719414029114,-41.15908127345814,0,0,96821.07600000006,,,147.28:329.0;,0.0,
8,2024-07-25 21:39:00,142.99,142.988,143.235,142.65,173300.0,24769600.0,1721914740,1.0,,,,,,,,1.0,,7.524112510325594,16.738370146249924,0.8048571428571469,-2.561836326362254,-71.43278995958653,1,0,48490.45600000006,142.99:338.0;,142.99:338.0;,,0.0,142.99;
10,2024-07-25 21:41:00,142.17,142.83,142.83,142.02,342035.0,48700800.0,1721914860,,,,,,,,,,,4.052109281554351,15.245366722966809,0.8812857142857199,-2.561836326362254,-71.29460264898758,0,0,96543.91600000006,,,142.17:338.0;,-277.1600000000073,
35,2024-07-25 22:06:00,139.11,139.333,139.6,139.11,312876.0,43604224.0,1721916360,,,,,,,1.0,,,,-11.89967664388951,7.852131558435211,1.2866428571428574,-4.971984588602325,-76.45176486441743,1,0,48272.74600000005,139.11:347.0;,139.11:347.0;,,0.0,139.11;
37,2024-07-25 22:08:00,138.64,138.26,138.71,138.26,322838.0,44722176.0,1721916480,,,,,,,,,,,-12.106265472447689,7.852131558435211,1.2866428571428574,-4.971984588602325,-74.02906130874871,0,0,96380.82600000004,,,138.64:347.0;,-163.09000000000947,
21,2024-07-26 21:52:00,139.64,139.76,139.8,139.43,174746.0,24394240.0,1722001920,1.0,,,,,,,,,,49.42080764569842,19.054677642570653,1.2789285714285756,23.81582307440104,-15.308450098823045,1,0,48205.02600000005,139.64:345.0;,139.64:345.0;,,0.0,139.64;
34,2024-07-26 22:05:00,139.889,139.435,140.07,139.435,228776.0,31977472.0,1722002700,,,,,,,,,,,60.55973602862963,28.126567621572264,1.3987142857142911,24.27833988403983,38.87411192529765,0,0,96466.73100000006,,,139.889:345.0;,85.90500000000816,
98,2024-07-30 23:09:00,136.8,136.446,136.8,136.36,255538.0,34898176.0,1722352140,,,,,1.0,,1.0,,,,-15.550619789743417,16.45991380829689,0.8321428571428575,28.95393159043964,-76.50196855649584,1,0,48313.13100000005,136.8:352.0;,136.8:352.0;,,0.0,136.8;
99,2024-07-30 23:10:00,136.345,136.63,136.63,136.345,172474.0,23553792.0,1722352200,,,,,,,,,,,-15.209171809358828,12.282621384846152,0.8817857142857163,28.95393159043964,-76.99328577133075,0,0,96306.57100000005,,,136.345:352.0;,-160.1600000000044,
252,2024-08-02 01:43:00,132.83,132.56,132.83,132.56,280500.0,37234176.0,1722534180,,,,,1.0,,,,,,-0.7238809394418286,-9.542762393578135,0.6176428571428586,31.38283666891641,0.042620560963626,1,0,48222.11100000005,132.83:362.0;,132.83:362.0;,,0.0,132.83;
254,2024-08-02 01:45:00,132.48,132.392,132.515,132.373,133272.0,17639424.0,1722534300,,,,,,,,,,,-1.3642729142918988,-9.464013361139916,0.5940714285714311,31.38283666891641,-46.23025655403781,0,0,96179.87100000004,,,132.48:362.0;,-126.70000000000823,
263,2024-08-03 01:54:00,132.3,132.19,132.38,132.19,54336.0,7192064.0,1722621240,,,,,,,1.0,,,,-2.430965455891624,15.76559901740859,0.709071428571426,3.386670233325887,-68.41810220143654,1,0,48154.97100000004,132.3:363.0;,132.3:363.0;,,0.0,132.3;
265,2024-08-03 01:56:00,131.89,131.95,132.04,131.89,128652.0,16981504.0,1722621360,,,,,,,,,,,-5.087386032763028,9.107798152487163,0.6919285714285682,3.386670233325887,-73.74961011440836,0,0,96031.04100000003,,,131.89:363.0;,-148.83000000000908,
9,2024-08-06 21:40:00,132.13,132.08,132.13,131.84,375035.0,49494912.0,1722951600,1.0,,,,,,,,1.0,,-4.661480655157305,-19.268908397673712,1.3370714285714322,67.86145132625421,-76.84503897816757,1,0,48067.85100000003,132.13:363.0;,132.13:363.0;,,0.0,132.13;
11,2024-08-06 21:42:00,130.5,130.48,130.563,130.335,542694.0,70805056.0,1722951720,,,,,,,,,,,-8.869626895890967,-19.268908397673712,1.3370714285714322,67.86145132625421,-77.14361160840686,0,0,95439.35100000002,,,130.5:363.0;,-591.6899999999983,
14,2024-08-06 21:45:00,129.775,130.346,130.346,129.775,448001.0,58282560.0,1722951900,,,,,,,1.0,,,,-10.137162556213568,-19.074889885956253,1.4995714285714346,67.86145132625421,-76.7599780774415,1,0,47552.376000000026,129.775:369.0;,129.775:369.0;,,0.0,129.775;
29,2024-08-06 22:00:00,132.788,132.67,132.788,132.38,214754.0,28467584.0,1722952800,,1.0,,,,,,,,,27.94254810893469,-7.049753002872407,1.642071428571435,68.20610582071029,75.0904038652774,0,1,72118.15600000003,129.775:184.0;,,132.788:185;,557.405000000001,133.05;
30,2024-08-06 22:01:00,132.26,132.24,132.41,132.14,191784.0,25359488.0,1722952860,,,,,,,,,,,28.9564281103444,-7.049753002872407,1.642071428571435,68.20610582071029,74.08118000296551,0,0,96453.99600000003,,,132.26:184.0;,457.2399999999973,
383,2024-08-08 03:54:00,129.48,129.43,129.635,129.372,195904.0,25381376.0,1723060440,,,1.0,,,,,,,,-15.32367217996712,3.26671491142595,0.5555000000000011,71.74322529969588,-76.49555312088407,1,0,96453.99600000003,,,,0.0,
4,2024-08-08 21:35:00,130.844,131.03,131.03,130.566,225923.0,29539712.0,1723124100,1.0,,,,,,,,,,46.205831537977645,11.47228878374544,0.9294999999999984,73.29994424275657,80.27776415424714,1,0,48303.40400000003,130.844:368.0;,130.844:368.0;,,0.0,130.844;
8,2024-08-08 21:39:00,129.84,130.11,130.11,129.76,194866.0,25315808.0,1723124340,,,,,,,,,,,62.44489031936584,11.47228878374544,0.9294999999999984,73.29994424275657,75.13601944793112,0,0,96084.52400000003,,,129.84:368.0;,-369.47199999999657,
9,2024-08-08 21:40:00,130.255,129.855,130.305,129.855,206671.0,26884672.0,1723124400,,,,,,,,,1.0,,63.56928451828404,15.838815808992024,1.0009999999999988,73.29994424275657,72.64236298153467,1,0,47890.174000000035,130.255:370.0;,130.255:370.0;,,0.0,130.255;
10,2024-08-08 21:41:00,129.735,129.655,129.965,129.655,193316.0,25095520.0,1723124460,,,,,,,,,,,63.77043376455708,15.838815808992024,1.0009999999999988,73.29994424275657,68.73983981849392,0,0,95892.12400000004,,,129.735:370.0;,-192.39999999999327,
215,2024-08-21 01:06:00,154.804,154.815,154.816,154.765,74616.0,11551232.0,1724173560,,,,,1.0,,,,,,-3.8399727246792175,5.315876753045359,0.4705000000000012,78.60414161667285,-75.6924339495353,1,0,48057.68800000004,154.804:309.0;,154.804:309.0;,,0.0,154.804;
224,2024-08-21 01:15:00,155.041,155.04,155.041,154.95,99032.0,15363072.0,1724174100,,,,,,,,,,,19.32079426778228,-1.6730548447114018,0.456857142857148,78.60414161667285,58.59077433191698,0,0,95965.35700000005,,,155.041:309.0;,73.23299999999838,
65,2024-08-22 22:36:00,156.06,156.17,156.2,156.06,121308.0,18930176.0,1724337360,,,,,,,1.0,,,,-8.112141416816385,7.450760964235698,0.7922142857142863,67.89714118551072,-76.74981162860615,1,0,48054.93700000005,156.06:307.0;,156.06:307.0;,,0.0,156.06;
74,2024-08-22 22:45:00,156.05,156.06,156.22,156.05,106917.0,16678528.0,1724337900,,,,,,,,,,,-3.2250180417898733,-0.2364335872451306,0.6460714285714276,67.89714118551072,-72.67728784622835,0,0,95962.28700000005,,,156.05:307.0;,-3.069999999997208,
266,2024-08-23 01:57:00,151.94,151.89,151.98,151.89,79902.0,12129280.0,1724349420,,,1.0,,,,,,,,-1.5779634340452446,-4.257453823070101,0.4873571428571414,40.81475185159937,-70.0035355772796,1,0,48101.187000000056,151.94:315.0;,151.94:315.0;,,0.0,151.94;
272,2024-08-23 02:03:00,151.71,151.61,151.71,151.58,118984.0,18048512.0,1724349780,,,,,,,,,,,-0.9641805233315246,-4.919375478567112,0.4708571428571417,30.86558362589693,-73.51576501892069,0,0,95889.83700000006,,,151.71:315.0;,-72.44999999999678,
64,2024-08-26 22:35:00,149.885,149.74,149.885,149.653,252996.0,37944320.0,1724682900,,,1.0,,,,,,,,-18.14219016440449,18.112108883853907,1.2127857142857132,12.807562888931573,-78.31316466955975,1,0,48076.52200000006,149.885:319.0;,149.885:319.0;,,0.0,149.885;
68,2024-08-26 22:39:00,149.31,149.19,149.31,148.973,443044.0,66087424.0,1724683140,,,,,,,,,,,-15.571023923553376,18.112108883853907,1.2127857142857132,12.807562888931573,-78.68311641906419,0,0,95706.41200000007,,,149.31:319.0;,-183.42499999999637,
77,2024-08-28 22:48:00,147.15,147.11,147.2,147.11,130154.0,19139840.0,1724856480,,,,,,,1.0,,1.0,,23.22877550407906,6.67611700284678,0.7385714285714268,11.352982387204232,-75.75557711666427,1,0,47882.66200000007,147.15:325.0;,147.15:325.0;,,0.0,147.15;
79,2024-08-28 22:50:00,146.825,146.68,146.825,146.449,183247.0,26860032.0,1724856600,,,,,,,,,,,17.555402606735967,2.886502681615156,0.6809999999999974,11.352982387204232,-74.0763793392803,0,0,95600.78700000007,,,146.825:325.0;,-105.62500000000554,
104,2024-08-28 23:15:00,145.11,145.08,145.13,145.01,112871.0,16365952.0,1724858100,,,,,1.0,,,,,,-7.318933301338376,-10.456322497292431,0.6166428571428538,8.944923273256926,-76.608940150476,1,0,47859.59700000007,145.11:329.0;,145.11:329.0;,,0.0,145.11;
106,2024-08-28 23:17:00,144.89,145.12,145.12,144.89,129868.0,18816000.0,1724858220,,,,,,,,,,,-7.114618295172065,-10.456322497292431,0.6166428571428538,8.944923273256926,-76.3136953564818,0,0,95528.40700000006,,,144.89:329.0;,-72.38000000000898,
300,2024-08-30 02:31:00,146.31,146.18,146.42,146.09,111668.0,16333056.0,1724956260,,,,,,,,,1.0,,-14.841018130252053,12.586486061831891,0.385785714285717,63.28626348523649,-76.5507552699908,1,0,47831.34700000007,146.31:326.0;,146.31:326.0;,,0.0,146.31;
302,2024-08-30 02:33:00,146.148,146.075,146.2,146.075,68676.0,10043904.0,1724956380,,,,,1.0,,,,,,-15.232322492235127,12.586486061831891,0.385785714285717,63.28626348523649,-74.62980942742931,1,0,47831.34700000007,146.148:326.0;,146.148:326.0;,146.148:326.0;,-52.812000000002,146.148;
305,2024-08-30 02:36:00,145.85,146.03,146.08,145.8,88976.0,12989440.0,1724956560,,,,,,,,,,,-15.012566514361666,5.356962035387795,0.4050000000000011,63.28626348523649,-77.00418401976808,0,0,95378.44700000007,,,145.85:326.0;,-97.1480000000006,
316,2024-08-30 02:47:00,145.15,145.05,145.17,145.04,136386.0,19800320.0,1724957220,,,,,,,1.0,,,,-9.46963077211879,-5.454663978513452,0.4850714285714304,63.28626348523649,-70.97665507623681,1,0,47624.097000000074,145.15:329.0;,145.15:329.0;,,0.0,145.15;
318,2024-08-30 02:49:00,144.94,145.143,145.143,144.94,112088.0,16265728.0,1724957340,,,,,,,,,,,-8.190114176725555,-5.454663978513452,0.4850714285714304,63.28626348523649,-76.33592491298393,0,0,95309.35700000008,,,144.94:329.0;,-69.09000000000262,
5,2024-08-30 21:36:00,147.396,147.221,147.54,147.221,179605.0,26485040.0,1725024960,1.0,,,,,,,,,,83.36354787350092,5.517747983321826,0.7519999999999953,66.6364282821765,65.5733811188957,1,0,47700.44900000008,147.396:323.0;,147.396:323.0;,,0.0,147.396;
10,2024-08-30 21:41:00,146.92,146.92,146.965,146.8,243799.0,35814208.0,1725025260,,,,,,,,,,,71.88778166555127,12.61029795765127,0.778428571428565,66.6364282821765,53.28774801357494,0,0,95155.60900000008,,,146.92:323.0;,-153.7479999999997,
