,dt,open,close,high,low,vol,turnover,ts,icon_1,icon_2,icon_11,icon_12,icon_13,icon_41,icon_34,icon_35,icon_38,icon_39,jw1,jw5,atr5,jw30,baijiao,buy_signal,sell_signal,cash,chicang,buy_detail,sell_detail,profit,max_zhiying_prices
4,2024-01-17 22:35:00,55.579,55.446,55.579,55.446,370498.0,205768704.0,1705502100,1.0,,,,,,,,,,44.24001161826246,3.2808853659831243,0.2176428571428564,85.17502640701423,-69.40248553727977,1,0,50034.479,55.579:899.0;,55.579:899.0;,,0.0,55.579;
5,2024-01-17 22:36:00,55.424,55.454,55.515,55.424,288510.0,160132096.0,1705502160,,,,,,,,,,,36.228407747758055,3.2808853659831243,0.2176428571428564,85.17502640701423,-73.9711952927695,0,0,99860.655,,,55.424:899.0;,-139.34500000000102,
24,2024-01-17 22:55:00,55.054,54.959,55.054,54.959,419083.0,230476288.0,1705503300,,,,,,,,,1.0,,-11.272788522290512,-5.760819809288009,0.2863571428571418,85.17502640701423,-77.3213646931365,1,0,49871.623,55.054:908.0;,55.054:908.0;,,0.0,55.054;
26,2024-01-17 22:57:00,55.075,55.053,55.126,55.053,221675.0,122241024.0,1705503420,,,,,1.0,,,,,,-11.696018872909242,-5.760819809288009,0.2863571428571418,85.17502640701423,-77.22046638667392,1,0,28.747999999999593,55.054:908.0;55.075:905.0;,55.075:905.0;,,0.0,55.075;55.075;
30,2024-01-17 23:01:00,54.9,54.777,54.9,54.777,438533.0,240464384.0,1705503660,,,,,,,,,,,-13.774306972508503,-8.610999316996939,0.293214285714285,77.41397874709654,-77.24882363932574,0,0,99562.448,,,54.9:908.0;54.9:905.0;,-298.20700000000704,
32,2024-01-17 23:03:00,54.805,54.825,54.858,54.805,225718.0,123820032.0,1705503780,,,,,,,1.0,,,,-14.060014883647046,-8.610999316996939,0.293214285714285,77.41397874709654,-78.03225083498099,1,0,49580.28800000001,54.805:912.0;,54.805:912.0;,,0.0,54.805;
51,2024-01-17 23:22:00,55.217,55.185,55.217,55.15,333326.0,184512512.0,1705504920,,,,,,,,,,,47.44729077070429,-1.5460226485948851,0.3273571428571422,77.41397874709654,70.59195133251912,0,0,99938.19200000001,,,55.217:912.0;,375.7439999999991,
349,2024-01-25 04:20:00,61.349,61.281,61.364,61.259,133464.0,81694720.0,1706127600,1.0,,,,,,,,,,7.089598873862755,4.360098096163739,0.217142857142857,89.31155884372575,-76.28287260859643,1,0,50000.106000000014,61.349:814.0;,61.349:814.0;,,0.0,61.349;
350,2024-01-25 04:21:00,61.243,61.282,61.282,61.209,185948.0,113784832.0,1706127660,,,,,,,,,,,4.696158133293565,4.360098096163739,0.217142857142857,89.31155884372575,-76.86147722137927,0,0,99851.90800000002,,,61.243:814.0;,-86.28399999999556,
37,2024-02-06 23:08:00,67.704,67.689,67.773,67.688,189644.0,128804864.0,1707232080,,,,,,,1.0,,,,-17.40217436904259,8.184467686497669,0.5265714285714286,85.04878052920077,-77.80303882730935,1,0,49954.06000000003,67.704:737.0;,67.704:737.0;,,0.0,67.704;
41,2024-02-06 23:12:00,67.714,67.776,67.837,67.714,179080.0,121927680.0,1707232320,,,,,,,,,,,-13.74893788747614,3.5210723126249093,0.5422142857142863,85.04878052920077,-74.51605077745853,0,0,99859.27800000002,,,67.714:737.0;,7.37000000000377,
291,2024-02-13 03:22:00,71.406,71.599,71.599,71.406,221604.0,158048256.0,1707765720,,,,,,,1.0,,,,13.285047654029071,-13.85958961252598,0.3336428571428566,87.37706367840386,-75.88943553335041,1,0,49946.48400000002,71.406:699.0;,71.406:699.0;,,0.0,71.406;
306,2024-02-13 03:37:00,71.919,71.86,71.957,71.86,160224.0,115712000.0,1707766620,,,,,,,,,,,76.5153548736166,-12.175701484707204,0.3365000000000009,81.57492770675242,76.26618951542719,0,0,100217.86500000002,,,71.919:699.0;,358.58699999999374,
13,2024-02-27 22:44:00,77.57,77.336,77.679,77.336,433984.0,337095168.0,1709045040,1.0,,,,,,,,1.0,,8.79467611232819,12.064524076104306,0.3902857142857152,83.85633821656134,-76.47932339754985,1,0,50185.215000000026,77.57:645.0;,77.57:645.0;,,0.0,77.57;
15,2024-02-27 22:46:00,77.716,77.778,77.778,77.626,253772.0,197627904.0,1709045160,,,,,1.0,,,,,,7.797795612036097,11.295931985196276,0.4296428571428571,83.85633821656134,-73.54941118025994,1,0,136.11100000002625,77.57:645.0;77.716:644.0;,77.716:644.0;,,0.0,77.716;77.716;
23,2024-02-27 22:54:00,77.927,78.262,78.262,77.885,290808.0,227449856.0,1709045640,,,,,,,,,,,20.18269126932867,11.869696352045054,0.4497142857142852,83.85633821656134,-26.67493630181335,0,0,100584.01400000002,,,77.927:645.0;77.927:644.0;,366.14900000001694,
211,2024-03-09 02:02:00,87.638,88.327,88.327,87.638,372688.0,326508544.0,1709920920,,,,,1.0,,,,,,15.971561969284124,-20.378365791383985,0.831857142857143,57.99723358279249,-74.64000667934522,1,0,50367.440000000024,87.638:573.0;,87.638:573.0;,,0.0,87.638;
218,2024-03-09 02:09:00,87.907,88.273,88.273,87.892,228208.0,200032256.0,1709921340,,,,,,,,,,,21.048799041014163,-20.94010732508805,0.8322857142857144,57.99723358279249,33.729580689837434,0,0,100738.15100000001,,,87.907:573.0;,154.136999999995,
6,2024-03-12 21:37:00,87.316,87.433,87.433,87.278,281136.0,245538304.0,1710250620,1.0,,,,,,,,,,82.74198690499081,17.256808727202475,0.5512142857142877,6.34050042713163,78.98799689707874,1,0,50444.13500000001,87.316:576.0;,87.316:576.0;,,0.0,87.316;
13,2024-03-12 21:44:00,87.227,86.69,87.227,86.69,476823.0,414780928.0,1710251040,,,,,,,,,,,84.50353582089993,26.288861447049776,0.5533571428571459,6.34050042713163,70.15398014743153,0,0,100686.88700000002,,,87.227:576.0;,-51.263999999999214,
203,2024-03-19 00:54:00,87.746,87.708,87.746,87.653,98844.0,85876736.0,1710780840,,,1.0,,,,,,,,9.955928389265196,0.7900862436137004,0.3499999999999973,37.41032511335428,-74.13840645659067,1,0,50408.42900000002,87.746:573.0;,87.746:573.0;,,0.0,87.746;
205,2024-03-19 00:56:00,87.647,87.641,87.647,87.581,115864.0,100925440.0,1710780960,,,,,,,,,,,5.502308721101755,-2.0611723725611317,0.3722857142857115,37.41032511335428,-72.03349109208551,0,0,100630.16000000002,,,87.647:573.0;,-56.72699999999401,
63,2024-03-26 22:34:00,94.246,94.214,94.246,94.146,198851.0,187576320.0,1711463640,,,,,,,1.0,,1.0,,-0.989929995446012,16.160381471933192,0.5705714285714285,79.51456694531777,-76.6011854621496,1,0,50397.04200000002,94.246:533.0;,94.246:533.0;,,0.0,94.246;
71,2024-03-26 22:42:00,94.373,94.381,94.4,94.301,136497.0,128885760.0,1711464120,,,,,,,,,,,13.691412117571067,10.138819838733411,0.5278571428571429,79.51456694531777,4.927908071754092,0,0,100697.85100000002,,,94.373:533.0;,67.69100000000509,
11,2024-04-04 21:42:00,90.012,89.829,90.012,89.829,164451.0,148000000.0,1712238120,1.0,,,,,,,,,,87.55698013655261,12.382634245245228,0.3825000000000003,49.52915020344166,78.6271763739861,1,0,50381.143000000025,90.012:559.0;,90.012:559.0;,,0.0,90.012;
13,2024-04-04 21:44:00,89.811,89.88,89.889,89.811,148655.0,133674752.0,1712238240,,,,,,,,,,,84.74852801197933,12.382634245245228,0.3825000000000003,49.52915020344166,70.40672538147501,0,0,100585.49200000003,,,89.811:559.0;,-112.35899999999631,
282,2024-04-05 02:13:00,88.862,88.814,88.862,88.799,97792.0,86562816.0,1712254380,,,,,,,1.0,,1.0,,-3.335124796713899,17.558553229904163,0.1297142857142859,51.96547888137109,-71.53041497212897,1,0,50289.60000000003,88.862:566.0;,88.862:566.0;,,0.0,88.862;
283,2024-04-05 02:14:00,88.799,88.788,88.826,88.775,123340.0,109193216.0,1712254440,,,,,,,,,,,-3.085737020602103,17.558553229904163,0.1297142857142859,51.96547888137109,-69.2378343979019,0,0,100549.83400000003,,,88.799:566.0;,-35.65799999999331,
9,2024-04-05 21:40:00,86.308,86.107,86.308,86.107,250817.0,216349440.0,1712324400,1.0,,,,,,,,,,66.89400494143759,-2.6912276196173863,0.5037857142857172,19.760053121481636,74.6215740305617,1,0,50318.57800000003,86.308:582.0;,86.308:582.0;,,0.0,86.308;
10,2024-04-05 21:41:00,86.073,86.26,86.26,86.052,306725.0,264034304.0,1712324460,,,,,,,,,,,64.76021259184796,-2.6912276196173863,0.5037857142857172,19.760053121481636,64.1938270221642,0,0,100413.06400000003,,,86.073:582.0;,-136.77000000000794,
84,2024-04-12 22:55:00,88.35,88.501,88.501,88.35,122277.0,108223488.0,1712933700,,,,,,,,,1.0,,-4.73002048487357,-16.853821870142454,0.3154285714285722,104.89576061856104,-76.93485889027795,1,0,50230.26400000003,88.35:568.0;,88.35:568.0;,,0.0,88.35;
89,2024-04-12 23:00:00,88.458,88.336,88.458,88.298,159017.0,140603392.0,1712934000,,,,,,,,,,,0.4855010017779122,-20.430577343118077,0.3107142857142863,100.66667705442282,17.475096936519382,0,0,100474.40800000002,,,88.458:568.0;,61.344000000002325,
312,2024-04-13 02:43:00,87.86,87.967,87.967,87.86,120294.0,105488384.0,1712947380,,,,,,,1.0,,,,-7.631515944842683,-3.3218563556861085,0.1762857142857135,84.44962336929578,-75.9937898020146,1,0,50306.34800000003,87.86:571.0;,87.86:571.0;,,0.0,87.86;
314,2024-04-13 02:45:00,87.909,87.932,87.96,87.909,45366.0,39632896.0,1712947500,,,,,,,,,,,-5.479973135837767,-3.921185650634186,0.1740714285714273,84.44962336929578,-61.89604848661802,0,0,100502.38700000003,,,87.909:571.0;,27.979000000003765,
321,2024-04-13 02:52:00,87.684,87.708,87.724,87.683,89698.0,78442496.0,1712947920,,,,,1.0,,,,,,-5.451735609902364,-5.446240646120849,0.1930714285714267,84.44962336929578,-70.45314230021998,1,0,50347.13900000003,87.684:572.0;,87.684:572.0;,,0.0,87.684;
328,2024-04-13 02:59:00,87.698,87.679,87.699,87.662,60908.0,53215232.0,1712948340,,,,,,,,,,,6.403881160093796,-4.677654813829051,0.1970714285714276,84.44962336929578,63.34431727243781,0,0,100510.39500000002,,,87.698:572.0;,8.007999999997594,
234,2024-04-16 01:25:00,87.424,87.498,87.498,87.422,83048.0,72482816.0,1713201900,,,,,,,1.0,,,,34.9056824841628,8.709575106351991,0.267714285714287,54.51046469322986,-75.81901589892928,1,0,50329.019000000015,87.424:574.0;,87.424:574.0;,,0.0,87.424;
236,2024-04-16 01:27:00,87.257,87.209,87.257,87.209,170938.0,148885504.0,1713202020,,,,,,,,,,,21.957316220844035,8.709575106351991,0.267714285714287,54.51046469322986,-77.185139380176,0,0,100414.53700000001,,,87.257:574.0;,-95.85800000000091,
242,2024-04-16 01:33:00,86.667,86.626,86.677,86.549,96876.0,83587072.0,1713202380,,,,,1.0,,,,,,1.806086781203959,4.3098618847622845,0.2930714285714302,43.70924437134849,-76.56184782528292,1,0,50234.34400000001,86.667:579.0;,86.667:579.0;,,0.0,86.667;
247,2024-04-16 01:38:00,86.838,86.776,86.838,86.71,106316.0,91813888.0,1713202680,,,,,,,,,,,6.32421986130057,2.5944261956558563,0.2963571428571439,43.70924437134849,-32.48721279061425,0,0,100513.546,,,86.838:579.0;,99.00899999999552,
351,2024-04-16 03:22:00,86.249,86.359,86.359,86.233,110952.0,95477760.0,1713208920,,,1.0,,,,,,,,-6.029414158339279,-4.305248141255724,0.2406428571428601,17.947093001435064,-73.10296085408216,1,0,50316.628000000004,86.249:582.0;,86.249:582.0;,,0.0,86.249;
357,2024-04-16 03:28:00,86.237,86.215,86.262,86.201,62312.0,53526528.0,1713209280,,,,,,,,,,,0.9492798344623524,-4.46388463366187,0.2405714285714322,17.947093001435064,-55.69529366359977,0,0,100506.562,,,86.237:582.0;,-6.984000000000265,
86,2024-04-17 22:57:00,85.819,85.785,85.819,85.698,111433.0,95791104.0,1713365820,,,,,,,1.0,,,,41.03196910687217,-5.4704529683207,0.4353571428571428,26.43177799513316,-71.9214079199753,1,0,50302.44700000001,85.819:585.0;,85.819:585.0;,,0.0,85.819;
120,2024-04-17 23:31:00,86.183,86.015,86.183,85.921,188046.0,161852416.0,1713367860,,,,,,,,,,,72.43038311008502,-2.8181146500584475,0.3354285714285682,19.85989196370697,70.34483210077985,0,0,100719.50200000001,,,86.183:585.0;,212.94000000000253,
198,2024-04-18 00:49:00,84.555,84.663,84.663,84.555,128460.0,108320768.0,1713372540,,,1.0,,,,,,,,6.430896116484519,-15.751694951601516,0.2782857142857163,12.066991609810673,-72.77590019470226,1,0,50493.832,84.555:594.0;,84.555:594.0;,,0.0,84.555;
210,2024-04-18 01:01:00,84.649,84.717,84.731,84.649,123740.0,104404992.0,1713373260,,,,,,,,,,,42.064474758788826,-12.613446999743104,0.2812857142857154,8.211060027789003,75.8019664178393,0,0,100775.338,,,84.649:594.0;,55.83599999999649,
8,2024-04-18 21:39:00,83.52,83.02,83.52,83.02,452798.0,376848640.0,1713447540,1.0,,,,,,,,1.0,,13.026996965823116,16.62140427822284,0.671999999999999,4.39544766459391,-75.48830199919814,1,0,50412.778000000006,83.52:603.0;,83.52:603.0;,,0.0,83.52;
9,2024-04-18 21:40:00,82.905,82.604,82.905,82.604,912061.0,754240512.0,1713447600,,,,,,,,,,,9.256743450533603,12.839730020471784,0.7764285714285707,4.39544766459391,-76.88601574150636,0,0,100404.49300000002,,,82.905:603.0;,-370.8449999999969,
11,2024-04-18 21:42:00,82.981,83.286,83.286,82.944,417055.0,346831360.0,1713447720,,,,,,,1.0,,,,6.912949822426299,12.839730020471784,0.7764285714285707,4.39544766459391,-76.00061361581865,1,0,50035.02600000002,82.981:607.0;,82.981:607.0;,,0.0,82.981;
18,2024-04-18 21:49:00,84.187,84.563,84.563,84.165,347333.0,293166592.0,1713448140,,1.0,,,,,,,,,21.207148134477208,14.226570340392025,0.8437142857142855,4.39544766459391,75.81348313310451,0,1,75627.87400000001,82.981:303.0;,,84.187:304;,366.62400000000093,84.35;
22,2024-04-18 21:53:00,84.259,84.443,84.572,84.259,236233.0,199479296.0,1713448380,,,,,,,,,,,30.87859368001567,18.55795151962122,0.8925714285714282,4.39544766459391,77.30404584257923,0,0,101158.35100000001,,,84.259:303.0;,387.23400000000174,
157,2024-04-20 00:08:00,80.969,80.901,81.005,80.901,177494.0,143499264.0,1713542880,,,,,1.0,,,,,,-4.5826934271971,4.506524426194986,0.3617142857142882,25.44884360585019,-76.98266979207277,1,0,50633.695000000014,80.969:624.0;,80.969:624.0;,,0.0,80.969;
161,2024-04-20 00:12:00,80.699,80.467,80.709,80.467,337960.0,271589376.0,1713543120,,,,,,,,,,,-5.6463808806392,2.583082113768107,0.3630000000000016,25.44884360585019,-75.33545373188602,0,0,100989.87100000001,,,80.699:624.0;,-168.47999999999752,
181,2024-04-20 00:32:00,80.481,80.559,80.589,80.481,163512.0,131100672.0,1713544320,,,1.0,,,,,,,,1.233052044615036,-4.266506866344365,0.3448571428571451,21.474058212391967,-72.88446131122451,1,0,50447.803000000014,80.481:628.0;,80.481:628.0;,,0.0,80.481;
198,2024-04-20 00:49:00,80.811,80.823,80.885,80.811,75488.0,60657664.0,1713545340,,,,,,,,,,,61.39550916031962,-2.1740489319307983,0.3767142857142858,21.474058212391967,73.14085397478274,0,0,101197.11100000002,,,80.811:628.0;,207.24000000000785,
278,2024-04-20 02:09:00,79.277,79.044,79.277,79.033,294208.0,232370176.0,1713550140,,,,,1.0,,,,,,-0.2201610327057395,0.1166044841711055,0.3509285714285722,14.00116955703376,-60.38356990910549,1,0,50618.38500000002,79.277:638.0;,79.277:638.0;,,0.0,79.277;
279,2024-04-20 02:10:00,78.996,78.933,79.122,78.933,216988.0,170905600.0,1713550200,,,,,,,,,,,1.7383891985196414,0.8186652268337333,0.3930000000000007,14.00116955703376,-40.36790447929824,0,0,101017.83300000001,,,78.996:638.0;,-179.27800000000377,
304,2024-04-25 02:35:00,79.867,79.791,79.877,79.771,98160.0,78227456.0,1713983700,,,1.0,,1.0,,,,,,-14.541695120472632,12.038921626768476,0.3084999999999991,79.17297121929136,-76.02578332599809,1,0,50541.88900000001,79.867:632.0;,79.867:632.0;,,0.0,79.867;
319,2024-04-25 02:50:00,79.86,79.743,79.86,79.743,84036.0,66869248.0,1713984600,,,,,,,,,,,17.742956028920574,6.987757027755023,0.3105714285714285,79.17297121929136,-14.513802944653786,0,0,101013.40900000001,,,79.86:632.0;,-4.424000000003161,
15,2024-04-29 21:46:00,85.46,85.563,85.563,85.272,309132.0,264216576.0,1714398360,,,,,,,1.0,,1.0,,-17.091625744406812,19.390330873226414,0.4540714285714295,102.663402209775,-78.68460769518407,1,0,50592.00900000002,85.46:590.0;,85.46:590.0;,,0.0,85.46;
22,2024-04-29 21:53:00,85.653,85.656,85.656,85.599,169297.0,144995840.0,1714398780,,,,,,,,,,,-8.955542232051059,15.320487210596582,0.4985000000000009,102.663402209775,-69.82479068946166,0,0,101127.27900000002,,,85.653:590.0;,113.87000000000711,
224,2024-05-01 01:15:00,86.464,86.492,86.492,86.454,47424.0,40798208.0,1714497300,,,,,,,1.0,,,,5.377263184290783,-4.518721887045999,0.2671428571428578,84.13590623335904,-74.32058436356893,1,0,50632.30300000002,86.464:584.0;,86.464:584.0;,,0.0,86.464;
226,2024-05-01 01:17:00,86.355,86.527,86.527,86.355,75574.0,65083392.0,1714497420,,,,,,,,,,,6.069374075517601,-4.518721887045999,0.2671428571428578,84.13590623335904,-72.16503269845168,0,0,101063.62300000002,,,86.355:584.0;,-63.65599999999688,
152,2024-05-02 00:03:00,81.326,81.613,81.673,81.326,274890.0,223815680.0,1714579380,,,1.0,,,,,,,,-1.0673657720055658,-7.755318037010014,0.4487857142857123,30.977590276224248,-78.00173530698498,1,0,50560.177000000025,81.326:621.0;,81.326:621.0;,,0.0,81.326;
158,2024-05-02 00:09:00,81.532,81.409,81.532,81.409,90558.0,73596928.0,1714579740,,,,,,,,,,,6.173573301755667,-7.826407948682828,0.448214285714283,30.977590276224248,-26.55271697544994,0,0,101191.54900000003,,,81.532:621.0;,127.9260000000019,
236,2024-05-17 01:27:00,94.422,94.481,94.481,94.422,63020.0,59310080.0,1715880420,,,,,,,,,1.0,,31.371177744210115,14.3676759718728,0.1890714285714289,99.58354989151964,-60.63648821890714,1,0,50675.77900000003,94.422:535.0;,94.422:535.0;,,0.0,94.422;
239,2024-05-17 01:30:00,94.37,94.447,94.447,94.37,43124.0,40521728.0,1715880600,,,,,,,,,,,30.10353766730603,11.459819001850365,0.2045714285714288,96.92763499208482,18.516342734514524,0,0,101163.72900000004,,,94.37:535.0;,-27.819999999995986,
299,2024-05-23 02:30:00,93.475,93.399,93.475,93.399,109642.0,102123520.0,1716402600,,,,,,,1.0,,,,23.03142924999028,18.548053812446227,0.3514285714285685,64.82358048607631,-73.32380517628225,1,0,50593.75400000004,93.475:541.0;,93.475:541.0;,,0.0,93.475;
308,2024-05-23 02:39:00,93.583,93.69,93.699,93.583,67952.0,63383552.0,1716403140,,,,,,,,,,,29.850270759087596,17.38734004271619,0.3679285714285681,64.82358048607631,-20.28471801219391,0,0,101222.15700000004,,,93.583:541.0;,58.428000000002214,
10,2024-05-24 21:41:00,103.479,103.721,103.721,103.469,281742.0,291594240.0,1716558060,1.0,,,,,,,,,,56.02478132136065,10.156420427980194,0.7732857142857179,87.4653903792883,-49.17981918848393,1,0,50620.926000000036,103.479:489.0;,103.479:489.0;,,0.0,103.479;
18,2024-05-24 21:49:00,104.187,104.07,104.341,104.07,191784.0,199780352.0,1716558540,,1.0,,,,,,,,,62.30801559943097,14.888054513994987,0.8135000000000038,87.4653903792883,42.03614384567928,0,1,101568.36900000004,,,104.187:245;104.187:244.0;,172.7519999999996,
356,2024-05-31 03:27:00,111.782,111.536,111.782,111.536,142240.0,158158848.0,1717097220,,,,,1.0,,,,,,7.136068195798032,15.57684159644846,0.3139285714285721,76.91166180388626,-51.379141343398096,1,0,50819.34100000004,111.782:454.0;,111.782:454.0;,,0.0,111.782;
357,2024-05-31 03:28:00,111.501,111.435,111.699,111.435,252112.0,280211456.0,1717097280,,,,,,,,,,,5.6621000001943,15.57684159644846,0.3139285714285721,76.91166180388626,-57.876052513069176,0,0,101440.79500000004,,,111.501:454.0;,-127.57399999999623,
381,2024-05-31 03:52:00,110.141,110.541,110.541,110.141,401928.0,443027456.0,1717098720,,,1.0,,,,,,,,5.249126059140703,1.1942993571702942,0.4557142857142854,73.27636071367871,-66.67719550067014,1,0,101440.79500000004,,,,0.0,
66,2024-06-11 22:37:00,120.65,120.47,120.65,120.47,840184.0,101234688.0,1718116620,,,,,,,,,1.0,,-5.6364682437208415,16.168418384121537,0.8692142857142845,53.01232485129964,-75.06222271978469,1,0,50767.79500000004,120.65:420.0;,120.65:420.0;,,0.0,120.65;
68,2024-06-11 22:39:00,120.18,120.295,120.37,120.17,828208.0,99480576.0,1718116740,,,,,,,,,,,-8.021246226067156,16.168418384121537,0.8692142857142845,53.01232485129964,-75.48783277089318,0,0,101243.39500000005,,,120.18:420.0;,-197.39999999999952,
135,2024-06-11 23:46:00,119.315,119.624,119.624,119.135,1052048.0,125644800.0,1718120760,,,,,,,1.0,,,,-6.607961505023866,-0.5150510434825861,0.4550000000000003,49.482788684806295,-75.59924312110046,1,0,50534.52000000005,119.315:425.0;,119.315:425.0;,,0.0,119.315;
137,2024-06-11 23:48:00,119.152,119.254,119.4,119.152,567944.0,67761152.0,1718120880,,,,,,,,,,,-7.887840996678726,-0.5150510434825861,0.4550000000000003,49.482788684806295,-69.84367504916506,0,0,101174.12000000005,,,119.152:425.0;,-69.2749999999986,
182,2024-06-21 00:33:00,133.44,133.585,133.729,133.44,1531472.0,202919936.0,1718901180,,,1.0,,,,,,,,2.1926573419934883,9.451279473180875,0.6892142857142878,79.76325080366743,-71.95039608640796,1,0,50600.36000000005,133.44:379.0;,133.44:379.0;,,0.0,133.44;
184,2024-06-21 00:35:00,132.05,132.57,132.57,132.05,2889312.0,377716736.0,1718901300,,,,,,,,,,,2.653538045165991,4.985154153415337,0.8439285714285732,79.76325080366743,-73.02704589543946,0,0,100647.31000000006,,,132.05:379.0;,-526.8099999999948,
24,2024-06-21 21:55:00,125.46,124.97,125.46,124.97,2464024.0,307318784.0,1718978100,1.0,,,,,,,,1.0,,-13.7201498832858,7.549272116311485,1.410499999999998,14.17295246274884,-76.43822277872134,1,0,50337.85000000006,125.46:401.0;,125.46:401.0;,,0.0,125.46;
35,2024-06-21 22:06:00,126.1,126.19,126.19,126.0,1091728.0,137023488.0,1718978760,,,,,,,,,,,7.753657977901206,8.790267946806331,1.4872142857142825,8.07516086468641,5.854023947652284,0,0,100903.95000000006,,,126.1:401.0;,256.6400000000002,
15,2024-06-24 21:46:00,122.841,122.87,122.94,122.46,2619520.0,320923648.0,1719236760,1.0,,,,,,,,,,5.822589247986102,6.742821613732673,0.92592857142857,4.376084287804588,-73.88702228914619,1,0,50539.14000000006,122.841:410.0;,122.841:410.0;,,0.0,122.841;
18,2024-06-24 21:49:00,122.76,122.24,122.76,122.24,2636140.0,322441728.0,1719236940,,,,,,,,,,,-0.8215106982941052,6.742821613732673,0.92592857142857,4.376084287804588,-74.50254808483203,0,0,100870.74000000005,,,122.76:410.0;,-33.20999999999543,
21,2024-06-24 21:52:00,121.8,122.255,122.255,121.8,2113144.0,257652736.0,1719237120,,,,,,,,,1.0,,-4.720973673345327,3.9974128579544015,1.042357142857142,4.376084287804588,-77.11998508672934,1,0,50445.54000000005,121.8:414.0;,121.8:414.0;,,0.0,121.8;
44,2024-06-24 22:15:00,122.97,122.84,122.97,122.77,949776.0,116431872.0,1719238500,,,,,,,,,,,30.42961896171726,13.483013348395543,1.2331428571428558,2.0946456828208966,29.70507329452569,0,0,101355.12000000005,,,122.97:414.0;,484.3800000000007,
61,2024-06-24 22:32:00,121.45,121.57,121.665,121.45,1887544.0,229396480.0,1719239520,,,,,,,1.0,,,,14.2624459543989,8.222584956609253,1.2962142857142862,-0.8467088734686286,-75.71942767195975,1,0,50953.37000000005,121.45:415.0;,121.45:415.0;,,0.0,121.45;
64,2024-06-24 22:35:00,121.12,121.43,121.43,121.089,1456840.0,176513024.0,1719239700,,,,,,,,,,,13.500637056308952,7.3086151362277505,1.255357142857143,-0.8467088734686286,-71.46102681185444,0,0,101218.17000000006,,,121.12:415.0;,-136.9499999999993,
81,2024-06-24 22:52:00,118.98,119.145,119.164,118.98,2628896.0,313114624.0,1719240720,,,1.0,,,,,,,,-0.7175782656422385,1.903022769273207,1.1076428571428565,-0.8467088734686286,-73.2325930286678,1,0,50770.65000000005,118.98:424.0;,118.98:424.0;,,0.0,118.98;
84,2024-06-24 22:55:00,118.79,119.28,119.28,118.79,2218912.0,264095744.0,1719240900,,,,,,,,,,,3.556855201798029,2.0351440581270595,1.0729999999999993,-0.8467088734686286,27.43849956603909,0,0,101137.61000000004,,,118.79:424.0;,-80.55999999999904,
84,2024-06-26 22:55:00,124.82,125.02,125.02,124.711,1032528.0,128500736.0,1719413700,,,,,,,1.0,,,,0.5039620330419012,16.689664510485386,0.8354285714285743,56.28747383557884,-72.35488822630747,1,0,50585.510000000046,124.82:405.0;,124.82:405.0;,,0.0,124.82;
88,2024-06-26 22:59:00,124.81,124.61,124.81,124.57,940432.0,116864000.0,1719413940,,,,,,,,,,,2.771587671595221,16.689664510485386,0.8354285714285743,56.28747383557884,-59.10410738409427,0,0,101133.56000000006,,,124.81:405.0;,-4.0499999999963165,
47,2024-07-11 22:18:00,130.72,131.031,131.031,130.72,1257760.0,164728832.0,1720707480,,,,,,,1.0,,,,-12.90054926702583,1.5722413865790088,0.9358571428571432,94.97312311247262,-77.77876270298194,1,0,50675.64000000006,130.72:386.0;,130.72:386.0;,,0.0,130.72;
49,2024-07-11 22:20:00,130.45,130.54,130.67,130.27,1530000.0,199763968.0,1720707600,,,,,,,,,,,-12.75945599611827,-3.0895168850002506,1.000142857142856,94.97312311247262,-77.76331842692967,0,0,101029.34000000005,,,130.45:386.0;,-104.22000000000395,
123,2024-07-11 23:34:00,128.065,128.1,128.24,127.835,1408240.0,179623936.0,1720712040,,,1.0,,,,,,,,2.141783211696868,-20.98279910373718,0.8173571428571397,69.60028018661467,-69.62207583625964,1,0,50571.730000000054,128.065:394.0;,128.065:394.0;,,0.0,128.065;
132,2024-07-11 23:43:00,127.71,128.103,128.103,127.71,1194448.0,151445504.0,1720712580,,,,,,,,,,,3.72331041129841,-21.66295033131348,0.7918571428571417,69.60028018661467,-64.14137807058947,0,0,100889.47000000006,,,127.71:394.0;,-139.87000000000157,
275,2024-07-12 02:06:00,127.37,127.531,127.55,127.37,653744.0,82726912.0,1720721160,,,,,1.0,,,,,,-4.873192761927939,0.5555458670580435,0.4096428571428581,26.179356742496736,-73.86758129980647,1,0,50323.58000000006,127.37:397.0;,127.37:397.0;,,0.0,127.37;
281,2024-07-12 02:12:00,127.38,127.401,127.486,127.38,462304.0,58580992.0,1720721520,,,,,,,,,,,6.953200224279563,1.013307404871334,0.3842857142857139,26.179356742496736,67.90727387151439,0,0,100893.44000000006,,,127.38:397.0;,3.9699999999963893,
19,2024-07-15 21:50:00,128.815,128.55,128.835,128.52,997280.0,128430592.0,1721051400,,,,,1.0,,,,,,27.92970605608462,18.592158949280247,0.8737857142857105,36.46086612437844,-68.0627464380444,1,0,50526.77500000006,128.815:391.0;,128.815:391.0;,,0.0,128.815;
21,2024-07-15 21:52:00,128.44,128.33,128.445,128.255,896328.0,115130368.0,1721051520,,,,,,,,,,,19.69437335586275,18.592158949280247,0.8737857142857105,36.46086612437844,-72.23384447555665,0,0,100746.81500000006,,,128.44:391.0;,-146.625,
35,2024-07-17 22:06:00,119.3,119.209,119.3,119.185,2042592.0,243321856.0,1721225160,1.0,,,,,,,,1.0,,-11.875788649534726,16.28262690960389,1.026142857142856,11.017449878133348,-77.54472127113387,1,0,50402.21500000006,119.3:422.0;,119.3:422.0;,,0.0,119.3;
37,2024-07-17 22:08:00,118.74,118.71,118.96,118.65,2058584.0,244619264.0,1721225280,,,,,,,,,,,-11.6074229405818,16.28262690960389,1.026142857142856,11.017449878133348,-75.26539635413876,0,0,100510.49500000005,,,118.74:422.0;,-236.32000000000096,
194,2024-07-18 00:45:00,117.4,117.09,117.4,117.09,1262912.0,148187136.0,1721234700,,,,,,,1.0,,,,4.127553213583656,-5.856841788863811,0.4385714285714306,5.979289052274929,-68.73732393717728,1,0,50145.89500000005,117.4:429.0;,117.4:429.0;,,0.0,117.4;
195,2024-07-18 00:46:00,117.21,116.948,117.31,116.948,2287440.0,267663360.0,1721234760,,,,,,,,,,,2.38642500330128,-5.856841788863811,0.4385714285714306,5.979289052274929,-73.70215402301758,0,0,100428.98500000004,,,117.21:429.0;,-81.51000000000512,
115,2024-07-18 23:26:00,116.77,117.065,117.065,116.77,1066736.0,124255232.0,1721316360,,,1.0,,,,,,,,-5.717819863614572,17.07488792805715,0.7656428571428587,15.996207234919613,-78.10373717238177,1,0,50217.885000000046,116.77:430.0;,116.77:430.0;,,0.0,116.77;
117,2024-07-18 23:28:00,116.8,116.735,116.935,116.735,737264.0,86003712.0,1721316480,,,,,,,,,,,-5.63156359896621,17.07488792805715,0.7656428571428587,15.996207234919613,-74.95007490198503,0,0,100441.88500000004,,,116.8:430.0;,12.900000000000489,
200,2024-07-20 00:51:00,118.371,118.52,118.52,118.355,355768.0,42146816.0,1721407860,,,,,,,1.0,,,,-5.541090740342646,-6.825089615214935,0.4046428571428545,33.780451754457424,-74.93104728967478,1,0,50252.58100000004,118.371:424.0;,118.371:424.0;,,0.0,118.371;
202,2024-07-20 00:53:00,118.35,118.49,118.49,118.35,252840.0,29958144.0,1721407980,,,,,,,,,,,-3.072724134960147,-6.825089615214935,0.4046428571428545,33.780451754457424,-67.43850021932013,0,0,100432.98100000003,,,118.35:424.0;,-8.904000000000337,
298,2024-07-24 02:29:00,122.35,122.245,122.355,122.24,303344.0,37091328.0,1721759340,,,,,,,,,1.0,,0.048004040978995,-4.726951002408868,0.1853571428571417,110.7640871320026,-71.52366967444638,1,0,50269.48100000003,122.35:410.0;,122.35:410.0;,,0.0,122.35;
299,2024-07-24 02:30:00,122.245,122.3,122.34,122.245,197024.0,24084480.0,1721759400,,,,,,,,,,,-0.4790667827017216,-6.948370837830424,0.2112857142857131,108.48065429424923,-72.62463666421228,0,0,100389.93100000004,,,122.245:410.0;,-43.049999999995805,
139,2024-07-24 23:50:00,117.389,117.215,117.389,117.215,583520.0,68120576.0,1721836200,,,,,,,1.0,,1.0,,13.27428526077506,-4.303667727221843,0.3358571428571447,37.09191723201633,-73.29729981784882,1,0,50264.828000000045,117.389:427.0;,117.389:427.0;,,0.0,117.389;
140,2024-07-24 23:51:00,117.21,117.095,117.21,117.095,588576.0,68600832.0,1721836260,,,,,,,,,,,9.091343908349856,-4.303667727221843,0.3358571428571447,37.09191723201633,-75.50810218877348,0,0,100313.49800000005,,,117.21:427.0;,-76.43300000000087,
157,2024-07-25 00:08:00,115.97,115.94,116.07,115.94,958184.0,110874624.0,1721837280,,,,,1.0,,,,,,-0.732523511827992,-6.319701578156181,0.3583571428571446,26.81001490025372,-69.70269711749046,1,0,50214.45800000005,115.97:432.0;,115.97:432.0;,,0.0,115.97;
164,2024-07-25 00:15:00,116.309,116.4,116.4,116.27,683888.0,79242240.0,1721837700,,,,,,,,,,,20.546546880410325,-4.534002144515405,0.3957857142857161,26.81001490025372,80.1440455042275,0,0,100459.94600000005,,,116.309:432.0;,146.4479999999994,
361,2024-07-25 03:32:00,114.01,113.995,114.02,113.93,1052352.0,120623104.0,1721849520,,,1.0,,,,,,,,6.584091178107137,8.35547884632981,0.4540714285714295,-12.069794891702712,-77.06488954193462,1,0,100459.94600000005,,,,0.0,
5,2024-07-25 21:36:00,111.44,110.83,111.44,110.83,3623226.0,401972736.0,1721914560,1.0,,,,,,,,1.0,,16.584362387338857,14.988972994949757,0.8929999999999997,-17.85498298800377,-69.85869821823992,1,0,50311.946000000054,111.44:450.0;,111.44:450.0;,,0.0,111.44;
8,2024-07-25 21:39:00,111.83,111.62,111.9,111.62,1497992.0,167084032.0,1721914740,,,,,1.0,,,,,,11.311812151388024,14.988972994949757,0.8929999999999997,-17.85498298800377,-69.61599831937272,1,0,100.27600000005623,111.44:450.0;111.83:449.0;,111.83:449.0;,,0.0,111.83;111.83;
14,2024-07-25 21:45:00,112.717,112.753,112.753,112.565,1408076.0,158370816.0,1721915100,,1.0,,,,,,,,,27.987929160896456,18.67834999771322,1.0158571428571417,-17.85498298800377,67.51611752598203,0,1,101432.85900000005,,,112.717:225;112.717:225;112.717:225.0;112.717:224.0;,486.0130000000003,
30,2024-07-25 22:01:00,109.784,109.65,109.784,109.61,1849376.0,202636288.0,1721916060,,,,,,,1.0,,,,-0.4717347883247313,14.98478291192464,1.2742142857142855,-20.60089219015059,-76.15960044281795,1,0,51261.571000000054,109.784:457.0;,109.784:457.0;,,0.0,109.784;
33,2024-07-25 22:04:00,108.64,108.451,108.805,108.451,2922608.0,317844480.0,1721916240,,,,,,,,,,,-6.028983341211621,14.98478291192464,1.2742142857142855,-20.60089219015059,-77.12916422475965,0,0,100910.05100000006,,,108.64:457.0;,-522.8080000000025,
36,2024-07-25 22:07:00,108.51,107.64,108.51,107.49,4763792.0,514347008.0,1721916420,,,1.0,,,,,,,,-8.428671675390568,12.007859333651126,1.358857142857143,-20.60089219015059,-76.62088905324444,1,0,50778.43100000006,108.51:462.0;,108.51:462.0;,,0.0,108.51;
37,2024-07-25 22:08:00,107.43,107.19,107.49,107.07,3662152.0,391173120.0,1721916480,,,,,,,,,,,-9.313651572281046,12.007859333651126,1.358857142857143,-20.60089219015059,-77.04102335446332,0,0,100411.09100000007,,,107.43:462.0;,-498.95999999999924,
6,2024-07-26 21:37:00,114.975,114.99,115.06,114.88,1303212.0,149681664.0,1722001020,1.0,,,,,,,,,,60.36925325842721,7.915624105357608,0.9510714285714283,54.98070669160404,80.86255590915549,1,0,50281.991000000075,114.975:436.0;,114.975:436.0;,,0.0,114.975;
11,2024-07-26 21:42:00,115.02,115.19,115.2,114.97,956220.0,109878784.0,1722001320,,,,,,,,,,,82.52725159918874,17.526440637669282,1.0019999999999991,54.98070669160404,77.01823067851062,0,0,100430.71100000007,,,115.02:436.0;,19.620000000000744,
14,2024-07-30 21:45:00,110.22,109.459,110.22,109.459,3377382.0,370475776.0,1722347100,1.0,,,,,,,,,,5.220862186797831,15.547829237451197,0.6905714285714291,49.38243407929048,-72.99197529805843,1,0,50280.61100000007,110.22:455.0;,110.22:455.0;,,0.0,110.22;
15,2024-07-30 21:46:00,109.44,108.939,109.49,108.939,2444464.0,266963200.0,1722347160,,,,,,,,,,,1.6012811837082666,15.547829237451197,0.6905714285714291,49.38243407929048,-75.57930217843446,0,0,100075.81100000007,,,109.44:455.0;,-354.90000000000055,
17,2024-07-30 21:48:00,109.532,109.07,109.532,109.07,1526092.0,166849280.0,1722347280,,,,,,,1.0,,1.0,,-1.1008201248078675,15.547829237451197,0.6905714285714291,49.38243407929048,-75.5449412351426,1,0,49910.15500000008,109.532:458.0;,109.532:458.0;,,0.0,109.532;
18,2024-07-30 21:49:00,109.05,109.362,109.362,108.83,2043030.0,222576128.0,1722347340,,,,,,,,,,,-1.4925060410518682,15.547829237451197,0.6905714285714291,49.38243407929048,-76.46030298185055,0,0,99855.05500000008,,,109.05:458.0;,-220.7559999999997,
69,2024-07-30 22:40:00,106.8,107.02,107.1,106.8,1641432.0,174754816.0,1722350400,,,1.0,,,,,,,,3.905226388251883,4.916793738692689,0.9162857142857136,37.481947019865615,-77.85705372823325,1,0,49659.05500000008,106.8:470.0;,106.8:470.0;,,0.0,106.8;
73,2024-07-30 22:44:00,106.976,107.1,107.21,106.94,1309496.0,139507712.0,1722350640,,,,,,,,,,,10.979695011116384,4.916793738692689,0.9162857142857136,37.481947019865615,-66.04814098587703,0,0,99937.77500000008,,,106.976:470.0;,82.72000000000091,
98,2024-07-30 23:09:00,104.75,104.32,104.75,104.32,2449728.0,255194112.0,1722352140,,,,,1.0,,,,,,0.5305389069753055,-0.75597542208547,0.774714285714286,30.61335013429435,-70.89172709264408,1,0,49762.52500000008,104.75:479.0;,104.75:479.0;,,0.0,104.75;
99,2024-07-30 23:10:00,104.3,104.965,104.965,104.3,2377584.0,247861248.0,1722352200,,,,,,,,,,,2.5625443298318373,-0.9040518103589932,0.7704285714285726,30.61335013429435,-74.60448087281692,0,0,99722.22500000008,,,104.3:479.0;,-215.55000000000138,
80,2024-08-01 22:51:00,114.16,114.65,114.65,114.16,2112912.0,241154048.0,1722523860,,,1.0,,,,,,,,-9.32683280062274,13.224453878422878,1.1082857142857137,118.8967482464426,-77.86026532504539,1,0,49948.46500000008,114.16:436.0;,114.16:436.0;,,0.0,114.16;
89,2024-08-01 23:00:00,114.449,113.99,114.449,113.95,1416064.0,162195456.0,1722524400,,,,,,,,,,,9.167756469852854,3.4460982508529128,1.039357142857142,115.7191120892348,-32.59458259173483,0,0,99848.22900000008,,,114.449:436.0;,126.00400000000064,
238,2024-08-02 01:29:00,109.005,109.09,109.09,108.805,1974656.0,215971840.0,1722533340,,,,,1.0,,,,,,0.8642454642696151,-18.015474291500528,0.6549285714285702,100.06976480443308,-72.93073316801036,1,0,50032.94400000008,109.005:457.0;,109.005:457.0;,,0.0,109.005;
241,2024-08-02 01:32:00,108.86,109.298,109.298,108.86,979328.0,107028480.0,1722533520,,,,,,,,,,,8.450696351067375,-17.164975926198203,0.6506428571428557,93.81770026278063,53.06924180088712,0,0,99781.96400000008,,,108.86:457.0;,-66.26499999999818,
8,2024-08-06 21:39:00,102.19,102.86,102.86,102.19,2145928.0,219775488.0,1722951540,1.0,,,,,,,,1.0,,67.31216970561682,12.444394675497293,1.3182857142857125,28.72102902344902,41.00784840489031,1,0,49913.24400000008,102.19:488.0;,102.19:488.0;,,0.0,102.19;
11,2024-08-06 21:42:00,101.41,101.091,101.455,101.091,2077764.0,210764288.0,1722951720,,,,,,,,,,,56.16637984297641,17.58694852792958,1.3791428571428557,28.72102902344902,8.87615604317396,0,0,99401.32400000008,,,101.41:488.0;,-380.64000000000055,
14,2024-08-06 21:45:00,101.148,101.235,101.565,101.148,1681116.0,170524160.0,1722951900,,,,,,,1.0,,,,44.44933265784354,19.16799573425719,1.4687857142857137,28.72102902344902,-45.5455589816532,1,0,49535.36000000008,101.148:493.0;,101.148:493.0;,,0.0,101.148;
40,2024-08-06 22:11:00,104.519,104.69,104.73,104.301,1542312.0,160843776.0,1722953460,,,,,,,,,,1.0,78.23879515189103,49.36309783204361,1.6877857142857156,30.680257210034974,59.85134887338663,0,1,101063.22700000009,,,104.519:493.0;,1661.9030000000046,104.519;
71,2024-08-20 22:42:00,126.63,126.47,126.63,126.46,1012344.0,127417344.0,1724164920,,,,,,,1.0,,,,-6.338998964398932,12.371022779207465,0.8768571428571386,96.04615164562584,-72.45221685748992,1,0,50537.85700000009,126.63:399.0;,126.63:399.0;,,0.0,126.63;
73,2024-08-20 22:44:00,126.081,126.24,126.25,126.081,1894112.0,238003200.0,1724165040,,,,,,,,,,,-7.570229270871032,12.371022779207465,0.8768571428571386,96.04615164562584,-74.28590454411477,0,0,100844.1760000001,,,126.081:399.0;,-219.05099999999698,
131,2024-08-22 23:42:00,126.235,126.395,126.405,126.235,866016.0,108951552.0,1724341320,,,,,1.0,,,,,,-8.37587868000626,2.7613408395740606,0.5458571428571405,74.16851170917434,-76.66793380890321,1,0,50476.411000000095,126.235:399.0;,126.235:399.0;,,0.0,126.235;
133,2024-08-22 23:44:00,125.57,125.035,125.57,125.035,2679936.0,335253504.0,1724341440,,,,,,,,,,,-11.02976893751427,2.7613408395740606,0.5458571428571405,74.16851170917434,-76.56909796555789,0,0,100578.8410000001,,,125.57:399.0;,-265.3350000000025,
261,2024-08-23 01:52:00,124.799,124.745,124.799,124.66,617248.0,76795904.0,1724349120,,,1.0,,,,,,,,-2.118693524993425,5.533687400759256,0.4620000000000023,46.8481708206003,-75.51864515587786,1,0,50160.0450000001,124.799:404.0;,124.799:404.0;,,0.0,124.799;
264,2024-08-23 01:55:00,124.59,123.91,124.59,123.87,2953312.0,365912064.0,1724349300,,,,,,,,,,,-3.9810491641206633,2.587431996335468,0.5001428571428599,46.8481708206003,-71.98772636349169,0,0,100494.4050000001,,,124.59:404.0;,-84.43600000000129,
21,2024-08-28 21:52:00,126.58,126.675,126.675,126.288,1352180.0,170800128.0,1724853120,1.0,,,,,,,,,,-7.6456955057959135,12.001707850506762,0.455999999999999,68.92497992791075,-76.05425384000215,1,0,50368.7250000001,126.58:396.0;,126.58:396.0;,,0.0,126.58;
24,2024-08-28 21:55:00,126.411,126.59,126.59,126.296,1207396.0,152440320.0,1724853300,,,,,,,,,,,-7.078151852628864,7.911727334703954,0.5008571428571439,68.92497992791075,-74.43742610843722,0,0,100427.4810000001,,,126.411:396.0;,-66.92399999999878,
25,2024-08-28 21:56:00,126.499,126.53,126.53,126.405,867724.0,109585408.0,1724853360,,,,,,,,,1.0,,-6.181712015046365,7.911727334703954,0.5008571428571439,68.92497992791075,-70.82387680687899,1,0,50207.378000000106,126.499:397.0;,126.499:397.0;,,0.0,126.499;
30,2024-08-28 22:01:00,126.655,126.71,126.71,126.447,1287080.0,162703360.0,1724853660,,,,,,,,,,,5.488861988552365,5.686633894296847,0.5297857142857154,65.93350020603633,21.451743705433707,0,0,100489.41300000012,,,126.655:397.0;,61.93200000000235,
92,2024-08-28 23:03:00,125.08,124.77,125.08,124.73,1553768.0,193386496.0,1724857380,,,,,,,1.0,,,,-6.541412714357108,-5.393367424635585,0.6187142857142872,57.83374308368761,-74.69741295177724,1,0,50332.333000000115,125.08:401.0;,125.08:401.0;,,0.0,125.08;
94,2024-08-28 23:05:00,124.776,124.825,124.825,124.62,1670168.0,207599616.0,1724857500,,,,,,,,,,,-9.167158960293342,-8.218669113501647,0.599571428571429,57.83374308368761,-77.21058561187844,0,0,100367.50900000011,,,124.776:401.0;,-121.90400000000082,
4,2024-08-30 21:35:00,118.78,118.94,118.94,118.63,1287924.0,152853888.0,1725024900,1.0,,,,,,,,,,42.48778115006533,16.776815964400683,0.8062142857142872,31.47322620289073,62.30407356482248,1,0,50242.349000000104,118.78:422.0;,118.78:422.0;,,0.0,118.78;
10,2024-08-30 21:41:00,119.515,119.558,119.61,119.28,1500284.0,179179008.0,1725025260,,1.0,,,,,,,,,70.78384705548089,22.43070151069812,0.8462857142857162,31.47322620289073,71.15737955215182,0,1,100677.67900000012,,,119.515:211;119.515:211.0;,155.08499999999987,
81,2024-09-03 22:52:00,110.15,110.0,110.15,110.0,1443456.0,158003200.0,1725375120,,,1.0,,1.0,,,,,,0.1574236212709898,-7.368336822105974,0.800857142857143,12.788842140920451,-55.60280314666057,1,0,50449.27900000012,110.15:456.0;,110.15:456.0;,,0.0,110.15;
86,2024-09-03 22:57:00,110.105,110.175,110.26,110.09,1038240.0,113778688.0,1725375420,,,,,,,,,,,11.186989620064828,-8.421989746713734,0.7626428571428576,12.788842140920451,83.13345449872779,0,0,100657.15900000013,,,110.105:456.0;,-20.520000000000778,
276,2024-09-04 02:07:00,109.081,108.91,109.081,108.91,992736.0,107982848.0,1725386820,,,,,1.0,,,,,,-10.502855796464694,4.439097421269871,0.3390714285714265,-4.074060840855125,-73.79332353916823,1,0,50370.81800000013,109.081:461.0;,109.081:461.0;,,0.0,109.081;
278,2024-09-04 02:09:00,108.8,108.75,108.8,108.75,1139232.0,123588608.0,1725386940,,,,,,,,,,,-11.35373413822603,4.439097421269871,0.3390714285714265,-4.074060840855125,-76.14615046845839,0,0,100527.61800000013,,,108.8:461.0;,-129.54100000000273,
9,2024-09-04 21:40:00,104.9,104.565,104.99,104.5,2150560.0,224855552.0,1725457200,1.0,,,,,,,,1.0,,17.31930882089398,19.44860839505675,0.8942142857142831,-1.219222794235094,-70.71316471795278,1,0,50280.51800000013,104.9:479.0;,104.9:479.0;,,0.0,104.9;
15,2024-09-04 21:46:00,106.52,107.045,107.045,106.52,2563668.0,273489920.0,1725457560,,1.0,,,,,,,,,41.439371591268895,22.96163151309432,1.047785714285711,-1.219222794235094,67.64382806382658,0,1,75845.31800000013,104.9:239.0;,,106.52:240;,388.7999999999977,106.54;
20,2024-09-04 21:51:00,107.535,107.28,107.535,107.045,2248952.0,241134592.0,1725457860,,,,,,,,,,1.0,74.16633501445516,29.515864159340573,1.1181428571428538,-1.219222794235094,78.98659458900582,0,1,101546.18300000014,,,107.535:239.0;,629.7649999999978,107.59;
67,2024-09-06 22:38:00,103.07,103.14,103.17,103.032,1409096.0,144974848.0,1725633480,,,1.0,,,,,,,,-0.3158042899785513,8.839348251682651,1.2399999999999989,10.235450697427972,-77.5158789210824,1,0,50835.74300000014,103.07:492.0;,103.07:492.0;,,0.0,103.07;
71,2024-09-06 22:42:00,102.93,102.9,102.941,102.819,1376784.0,141409280.0,1725633720,,,,,,,,,,,-0.3092136458600691,5.7102550908537495,1.1814285714285688,10.235450697427972,-75.57330667543755,0,0,101477.30300000015,,,102.93:492.0;,-68.87999999999329,
