,dt,open,close,high,low,vol,turnover,ts,icon_1,icon_2,icon_11,icon_12,icon_13,icon_41,icon_34,icon_35,icon_38,icon_39,jw1,jw5,atr5,jw30,baijiao,buy_signal,sell_signal,cash,chicang,buy_detail,sell_detail,profit,max_zhiying_prices
282,2024-01-05 03:13:00,148.385,148.48,148.49,148.385,2295.0,340640.0,1704395580,1.0,,,,,,,,,,-17.258720823783605,12.84342174662926,0.1557857142857171,,-77.81672444190623,1,0,50142.64,148.385:336.0;,148.385:336.0;,,0.0,148.385;
289,2024-01-05 03:20:00,148.595,148.61,148.66,148.57,9013.0,1339584.0,1704396000,,,,,,,,,,,12.001725222167494,7.1977448957594135,0.1607142857142918,,-28.429644307556025,0,0,100070.56,,,148.595:336.0;,70.56000000000267,
107,2024-01-11 00:18:00,148.925,148.91,148.95,148.842,21082.0,3138208.0,1704903480,,,,,,,,,1.0,,8.015141593426165,3.183036656473277,0.4829285714285731,89.23144519543251,-68.78074771090344,1,0,50180.68499999999,148.925:335.0;,148.925:335.0;,,0.0,148.925;
129,2024-01-11 00:40:00,149.23,149.265,149.3,149.23,3763.0,561760.0,1704904800,,,,,,,,,,,66.93022905741753,0.4724438098583334,0.3455714285714281,87.86168884070099,72.23478459006256,0,0,100172.73499999999,,,149.23:335.0;,102.17499999999276,
200,2024-01-13 01:51:00,149.23,149.17,149.23,149.17,7964.0,1188192.0,1705081860,,,,,,,,,1.0,,2.257209614543399,-15.046116922025462,0.2012142857142882,77.10907761306862,-74.79147143669428,1,0,50180.68499999999,149.23:335.0;,149.23:335.0;,,0.0,149.23;
211,2024-01-13 02:02:00,149.35,149.39,149.39,149.35,2372.0,354368.0,1705082520,,,,,,,,,,,18.05246793023245,-16.31680957728713,0.1920714285714301,70.84482222320776,76.8840452094868,0,0,100212.935,,,149.35:335.0;,40.20000000000152,
249,2024-01-13 02:40:00,148.68,148.7,148.71,148.665,4562.0,678400.0,1705084800,,,,,,,1.0,,,,10.57824095956736,-17.913549117132355,0.2417142857142827,61.56833168129393,-72.97402450892112,1,0,50256.454999999994,148.68:336.0;,148.68:336.0;,,0.0,148.68;
251,2024-01-13 02:42:00,148.59,148.56,148.59,148.56,6460.0,960064.0,1705084920,,,,,,,,,,,6.471149405521842,-17.913549117132355,0.2417142857142827,61.56833168129393,-70.80155606351906,0,0,100182.69499999999,,,148.59:336.0;,-30.240000000001146,
103,2024-01-24 00:14:00,140.54,140.51,140.54,140.45,9652.0,1356224.0,1706026440,,,,,,,1.0,,,,-7.707283416025071,2.236540605355969,0.7480714285714336,40.842636853706296,-77.76904752047632,1,0,50150.454999999994,140.54:356.0;,140.54:356.0;,,0.0,140.54;
106,2024-01-24 00:17:00,140.155,140.1,140.245,140.1,17398.0,2438464.0,1706026620,,,,,,,,,,,-7.461743521588112,-2.267407364956512,0.7502142857142928,40.842636853706296,-77.7484055295901,0,0,100045.635,,,140.155:356.0;,-137.05999999999676,
384,2024-01-27 04:55:00,141.86,141.915,141.915,141.855,19073.0,2705408.0,1706302500,1.0,,,,,,,,,,-6.841524523465694,-5.248420602293891,0.1577142857142917,31.70150530819427,-75.9775328976765,1,0,100045.635,,,,0.0,
7,2024-01-29 22:38:00,132.88,133.875,133.995,132.88,179293.0,23936480.0,1706539080,1.0,,,,,,,,1.0,,-3.3277063291644744,-7.563515662330317,0.8582142857142908,21.55331910274396,-74.90310888751911,1,0,50082.755,132.88:376.0;,132.88:376.0;,,0.0,132.88;
9,2024-01-29 22:40:00,133.63,132.99,133.63,132.99,180500.0,24065248.0,1706539200,,,,,,,,,,,0.6712987394749668,-7.340857865136513,1.030285714285719,21.55331910274396,18.049443941693557,0,0,100327.635,,,133.63:376.0;,282.0,
58,2024-01-29 23:29:00,129.54,129.455,129.54,129.16,216526.0,27993600.0,1706542140,,,,,,,1.0,,,,0.2296330385717482,-11.707102855901574,1.550785714285717,14.176622111353026,-76.06865242246583,1,0,50325.195,129.54:386.0;,129.54:386.0;,,0.0,129.54;
67,2024-01-29 23:38:00,130.07,130.24,130.51,130.07,257094.0,33487488.0,1706542680,,,,,,,,,,,29.279758349756417,-10.280551892583889,1.7489285714285765,7.140904224653752,83.20068217214799,0,0,100532.215,,,130.07:386.0;,204.58000000000044,
101,2024-01-30 00:12:00,128.5,128.975,129.01,128.5,104710.0,13491584.0,1706544720,,,1.0,,,,,,,,8.981577415258663,-9.972735642060506,1.0002142857142908,1.284458283801797,-74.95933474788063,1,0,50545.715,128.5:389.0;,128.5:389.0;,,0.0,128.5;
108,2024-01-30 00:19:00,130.01,129.62,130.01,129.59,93266.0,12109056.0,1706545140,,,,,,,,,,,52.55022856701808,-7.727912909509119,1.120285714285718,1.284458283801797,85.01035269583137,0,0,101119.605,,,130.01:389.0;,587.3899999999965,
338,2024-02-01 04:09:00,126.89,126.972,126.972,126.76,15289.0,1940224.0,1706731740,1.0,,,,,,,,,,19.64818601839021,-0.0638043743423963,0.3899999999999965,26.868281176556675,-75.37491032010067,1,0,50617.384999999995,126.89:398.0;,126.89:398.0;,,0.0,126.89;
342,2024-02-01 04:13:00,126.77,126.875,126.91,126.77,9711.0,1231872.0,1706731980,,,,,,,,,,,13.257590337654335,-1.3364364628341434,0.4057142857142831,26.868281176556675,-69.35631288305241,0,0,101071.845,,,126.77:398.0;,-47.76000000000181,
85,2024-02-05 23:56:00,120.655,120.625,120.688,120.59,21524.0,2596928.0,1707148560,1.0,,,,,,,,,,3.220053579317778,-4.721714769500053,0.4424285714285716,26.787368225901027,-60.45322897596648,1,0,50638.055,120.655:418.0;,120.655:418.0;,,0.0,120.655;
91,2024-02-06 00:02:00,120.33,120.395,120.395,120.3,23156.0,2786880.0,1707148920,,,,,,,,,,,-10.962988977231175,-8.056832939311064,0.4442142857142853,21.49271831947702,-75.88181471044769,0,0,100935.995,,,120.33:418.0;,-135.8500000000012,
36,2024-02-09 23:07:00,125.68,125.59,125.735,125.59,9662.0,1213800.0,1707491220,1.0,,,,,,,,,,1.9433194186707323,10.15670828240014,0.4647142857142857,65.61767958364209,-73.04241021200853,1,0,50538.314999999995,125.68:401.0;,125.68:401.0;,,0.0,125.68;
43,2024-02-09 23:14:00,125.795,125.811,125.82,125.75,7257.0,912944.0,1707491640,,,,,,,,,,,10.15840475590825,10.57811340639146,0.4897142857142853,65.61767958364209,41.07205797128077,0,0,100982.10999999999,,,125.795:401.0;,46.11499999999795,
290,2024-02-13 03:21:00,131.57,131.552,131.595,131.552,10460.0,1376256.0,1707765660,1.0,,,,,,,,,,-0.4107621553833454,-9.398438988395952,0.1853571428571468,84.84811306038844,-77.9050840893082,1,0,50590.79999999999,131.57:383.0;,131.57:383.0;,,0.0,131.57;
298,2024-02-13 03:29:00,131.52,131.52,131.52,131.46,3398.0,446400.0,1707766140,,,,,,,,,,,-3.765063457114806,-13.987952939294187,0.1803571428571453,84.84811306038844,-76.69585870491917,0,0,100962.95999999999,,,131.52:383.0;,-19.14999999999347,
277,2024-02-14 03:08:00,128.35,128.27,128.35,128.27,8458.0,1085216.0,1707851280,,,,,,,,,1.0,,-0.8532338734038021,-5.533826630985757,0.1747857142857145,48.835692823486,-72.41204596654629,1,0,50521.409999999996,128.35:393.0;,128.35:393.0;,,0.0,128.35;
278,2024-02-14 03:09:00,128.27,128.29,128.29,128.24,5170.0,663008.0,1707851340,,,,,,,,,,,-0.8095947669596839,-5.533826630985757,0.1747857142857145,48.835692823486,-74.75642818647047,0,0,100931.51999999999,,,128.27:393.0;,-31.439999999993745,
346,2024-02-14 04:17:00,128.445,128.375,128.45,128.375,7515.0,964800.0,1707855420,,,,,,,1.0,,,,3.354684014404853,5.314798463322841,0.1799285714285677,41.60439313033652,-66.04955194322811,1,0,50452.634999999995,128.445:393.0;,128.445:393.0;,,0.0,128.445;
347,2024-02-14 04:18:00,128.35,128.32,128.35,128.315,4553.0,584064.0,1707855480,,,,,,,,,,,2.7375832787838306,5.314798463322841,0.1799285714285677,41.60439313033652,-59.70804039913023,0,0,100894.185,,,128.35:393.0;,-37.33499999999955,
373,2024-02-17 04:44:00,135.44,135.385,135.44,135.37,12974.0,1756928.0,1708116240,,,,,1.0,,,,,,-7.937322493176801,5.271571352387511,0.2075714285714249,82.63636640064726,-76.43057285974182,1,0,100894.185,,,,0.0,
8,2024-02-20 22:39:00,133.08,133.1,133.17,133.029,33038.0,4398192.0,1708439940,1.0,,,,,,,,1.0,,39.05559372930074,1.9448451487680245,0.4185714285714275,70.46202114697925,71.19016665794226,1,0,50456.86499999999,133.08:379.0;,133.08:379.0;,,0.0,133.08;
12,2024-02-20 22:43:00,133.51,133.4,133.57,133.4,46818.0,6252520.0,1708440180,,,,,,,,,,,42.70052723524829,4.2675490381128185,0.5017857142857126,70.46202114697925,71.67604487515578,0,0,101057.15499999998,,,133.51:379.0;,162.9699999999918,
33,2024-02-20 23:04:00,131.39,131.528,131.58,131.38,59408.0,7808048.0,1708441440,,,,,,,1.0,,,,8.083606764018818,4.773564198503301,0.7234285714285684,61.78679006838576,-76.68613372647305,1,0,50734.78499999999,131.39:383.0;,131.39:383.0;,,0.0,131.39;
39,2024-02-20 23:10:00,131.595,131.37,131.595,131.37,16747.0,2201360.0,1708441800,,,,,,,,,,,1.349611749193862,-0.156179661332942,0.7802142857142818,61.78679006838576,-70.27205000537872,0,0,101135.66999999998,,,131.595:383.0;,78.51500000000479,
316,2024-02-28 03:47:00,128.91,128.89,128.94,128.89,3913.0,504448.0,1709063220,1.0,,,,,,,,,,2.4956299003952083,-22.957629703907077,0.135000000000001,65.45230133978866,-70.6255185007935,1,0,50602.94999999998,128.91:392.0;,128.91:392.0;,,0.0,128.91;
329,2024-02-28 04:00:00,129.06,129.01,129.06,128.99,4488.0,578880.0,1709064000,,,,,,,,,,,36.968298105586015,-24.41120822345509,0.1332142857142863,66.47602040225632,82.65251805426325,0,0,101194.46999999999,,,129.06:392.0;,58.80000000000223,
19,2024-02-28 22:50:00,125.795,125.47,125.795,125.47,22732.0,2857792.0,1709131800,1.0,,,,,,,,,,8.292969604050171,-15.884544557611804,0.4893571428571458,72.09138739111765,-73.77417285905575,1,0,50624.87999999998,125.795:402.0;,125.795:402.0;,,0.0,125.795;
20,2024-02-28 22:51:00,125.49,125.535,125.55,125.49,18118.0,2274056.0,1709131860,,,,,,,,,,,6.424005103666829,-15.884544557611804,0.4893571428571458,72.09138739111765,-75.40542655754622,0,0,101071.85999999999,,,125.49:402.0;,-122.61000000000274,
6,2024-02-29 22:37:00,126.71,126.58,126.71,126.58,31143.0,3944332.0,1709217420,1.0,,,,,,,,,,51.49247293189653,10.452738421243446,0.4442857142857101,26.839910658917404,77.34089841403679,1,0,50641.27999999999,126.71:398.0;,126.71:398.0;,,0.0,126.71;
10,2024-02-29 22:41:00,126.205,126.08,126.25,126.05,30566.0,3856808.0,1709217660,,,,,,,,,,,53.76770651022476,15.96878539896359,0.4889285714285672,26.839910658917404,69.35291082215203,0,0,100870.87,,,126.205:398.0;,-200.9899999999982,
13,2024-02-29 22:44:00,126.34,126.44,126.59,126.26,33734.0,4263144.0,1709217840,,,,,,,,,1.0,,51.34841558266697,15.96878539896359,0.4889285714285672,26.839910658917404,45.0797970680204,1,0,50461.20999999999,126.34:399.0;,126.34:399.0;,,0.0,126.34;
16,2024-02-29 22:47:00,126.2,126.29,126.31,126.2,22520.0,2843104.0,1709218020,,,,,,,,,,,50.82783201120404,21.58648808701584,0.5410714285714237,26.839910658917404,45.80725082882399,0,0,100815.01,,,126.2:399.0;,-55.86000000000023,
3,2024-03-04 22:34:00,125.78,125.11,125.78,125.11,21835.0,2741404.0,1709562840,1.0,,,,,,,,,,18.522700816843987,4.887852509382057,0.1949285714285724,54.5712461989672,54.5150057640852,1,0,50503.009999999995,125.78:400.0;,125.78:400.0;,,0.0,125.78;
4,2024-03-04 22:35:00,124.685,125.045,125.155,124.685,153737.0,19206960.0,1709562900,,,,,,,,,,,17.009640903178145,3.301201773667003,0.3970714285714294,54.5712461989672,-41.370452065326056,0,0,100377.01,,,124.685:400.0;,-437.99999999999955,
12,2024-03-04 22:43:00,124.49,124.46,124.56,124.37,17702.0,2202632.0,1709563380,,,,,,,1.0,,1.0,,2.62915551738557,-0.0175839608803869,0.4302142857142854,54.5712461989672,-74.2098928624579,1,0,50083.049999999996,124.49:404.0;,124.49:404.0;,,0.0,124.49;
14,2024-03-04 22:45:00,124.27,124.6,124.6,124.27,13977.0,1738448.0,1709563500,,,,,,,,,,,2.209560492964592,-0.8154485695385603,0.4383571428571419,54.5712461989672,-71.93214547749103,0,0,100288.13,,,124.27:404.0;,-88.87999999999954,
25,2024-03-04 22:56:00,123.725,123.355,123.725,123.355,23689.0,2925200.0,1709564160,,,,,1.0,,,,,,0.4704491960931207,-3.287117350959477,0.5649999999999997,54.5712461989672,4.454161872204852,1,0,49932.05500000001,123.725:407.0;,123.725:407.0;,,0.0,123.725;
26,2024-03-04 22:57:00,123.4,123.25,123.51,123.25,17417.0,2149192.0,1709564220,,,,,,,,,,,-0.0866419026248408,-3.287117350959477,0.5649999999999997,54.5712461989672,-31.94620981512201,0,0,100155.85500000001,,,123.4:407.0;,-132.27499999999537,
114,2024-03-05 00:25:00,122.37,122.21,122.38,122.21,21970.0,2687072.0,1709569500,,,,,1.0,,,,,,-17.566567871493817,-0.5392183310405869,0.3671428571428561,36.22096740856267,-76.8746632454443,1,0,49861.78500000001,122.37:411.0;,122.37:411.0;,,0.0,122.37;
117,2024-03-05 00:28:00,122.19,122.128,122.228,122.128,9263.0,1131808.0,1709569680,,,,,,,,,,,-19.632919228112,-0.5392183310405869,0.3671428571428561,36.22096740856267,-77.72079966012303,0,0,100081.875,,,122.19:411.0;,-73.9800000000028,
10,2024-03-06 22:41:00,121.46,121.725,121.827,121.46,88424.0,10749104.0,1709736060,1.0,,,,,,,,,,96.34307094515444,13.97803168184629,0.9510000000000016,33.23254123284385,75.75003892089282,1,0,50161.815,121.46:411.0;,121.46:411.0;,,0.0,121.46;
12,2024-03-06 22:43:00,121.483,121.3,121.515,121.26,42377.0,5144080.0,1709736180,,,,,,,,,,,99.55492733525524,13.97803168184629,0.9510000000000016,33.23254123284385,73.95956185723647,0,0,100091.32800000001,,,121.483:411.0;,9.453000000004252,
319,2024-03-07 03:50:00,116.89,116.873,116.89,116.86,20509.0,2398592.0,1709754600,,,1.0,,,,,,,,3.0124319994780717,-9.188214635322836,0.2292142857142869,41.667792131047065,-49.80189916364544,1,0,50062.40800000001,116.89:428.0;,116.89:428.0;,,0.0,116.89;
327,2024-03-07 03:58:00,116.99,116.98,116.99,116.96,16923.0,1980288.0,1709755080,,,,,,,,,,,20.57918503319377,-9.705822340058177,0.2331428571428578,41.667792131047065,83.30127180447684,0,0,100134.12800000001,,,116.99:428.0;,42.79999999999757,
18,2024-03-07 22:49:00,115.775,116.15,116.15,115.74,54812.0,6354240.0,1709822940,1.0,,,,,,,,,,29.09808904349097,-0.7291805093695984,0.5463571428571419,24.713523059908624,-54.56341236745177,1,0,50119.32800000001,115.775:432.0;,115.775:432.0;,,0.0,115.775;
24,2024-03-07 22:55:00,116.52,116.495,116.52,116.345,15817.0,1842176.0,1709823300,,,,,,,,,,,56.65818703361178,7.471103323934471,0.6469285714285726,24.713523059908624,77.34706468338565,0,0,100455.96800000001,,,116.52:432.0;,321.8399999999958,
16,2024-03-08 22:47:00,114.0,114.3,114.3,114.0,58226.0,6642416.0,1709909220,1.0,,,,,,,,1.0,,-19.695319964741245,-2.84805851223868,0.5527142857142857,32.593081778687136,-76.64668343213854,1,0,50295.96800000001,114.0:440.0;,114.0:440.0;,,0.0,114.0;
20,2024-03-08 22:51:00,114.18,114.41,114.56,114.18,33565.0,3838464.0,1709909460,,,,,,,,,,,-10.07256361325144,-3.424597891899225,0.6102142857142852,32.593081778687136,-60.16084879329852,0,0,100535.168,,,114.18:440.0;,79.200000000003,
89,2024-03-09 00:00:00,112.602,112.54,112.602,112.49,50709.0,5708480.0,1709913600,,,,,,,1.0,,,,6.139592222644904,-16.255215747412095,0.4089999999999989,18.218470853736875,-45.24084396849253,1,0,50314.67600000001,112.602:446.0;,112.602:446.0;,,0.0,112.602;
91,2024-03-09 00:02:00,112.31,112.28,112.31,112.19,45395.0,5097472.0,1709913720,,,,,,,,,,,4.346080192774306,-16.255215747412095,0.4089999999999989,18.218470853736875,-61.90919739527072,0,0,100404.93600000002,,,112.31:446.0;,-130.2320000000007,
109,2024-03-09 00:20:00,111.05,110.99,111.135,110.99,76996.0,8557056.0,1709914800,,,,,1.0,,,,,,1.090608170587938,-17.630241575449702,0.4701428571428557,18.218470853736875,-51.06762338282434,1,0,50210.33600000002,111.05:452.0;,111.05:452.0;,,0.0,111.05;
114,2024-03-09 00:25:00,110.87,110.89,110.975,110.87,36240.0,4019008.0,1709915100,,,,,,,,,,,2.63462750839042,-17.527735753130784,0.4483571428571409,18.218470853736875,-43.991006229503,0,0,100323.57600000003,,,110.87:452.0;,-81.35999999999666,
176,2024-03-09 01:27:00,108.96,108.96,109.01,108.95,76446.0,8329088.0,1709918820,,,1.0,,,,,,,,-1.4619761099032438,-12.67837308349107,0.445214285714285,9.963905836566228,-75.89454543788678,1,0,50201.97600000003,108.96:460.0;,108.96:460.0;,,0.0,108.96;
178,2024-03-09 01:29:00,109.4,109.97,109.97,109.4,28502.0,3122624.0,1709918940,,,,,1.0,,,,,,8.655216413731598,-12.67837308349107,0.445214285714285,9.963905836566228,-1.20207789041769,1,0,96.77600000002712,108.96:460.0;109.4:458.0;,109.4:458.0;,,0.0,109.4;109.4;
181,2024-03-09 01:32:00,110.17,110.01,110.31,110.01,33353.0,3674240.0,1709919120,,,,,,,,,,,30.83215117431831,-10.038390851164532,0.4920714285714282,8.105821480041584,87.28245269811963,0,0,101232.83600000002,,,110.17:460.0;110.17:458.0;,909.2600000000018,
338,2024-03-12 03:09:00,112.61,112.635,112.64,112.61,11856.0,1335808.0,1710184140,,,,,,,1.0,,,,5.863825922983693,-7.145784708671656,0.178214285714286,36.48119263461593,-75.17761728621522,1,0,50670.946000000025,112.61:449.0;,112.61:449.0;,,0.0,112.61;
341,2024-03-12 03:12:00,112.53,112.51,112.55,112.51,5410.0,609216.0,1710184320,,,,,,,,,,,-2.84363534996816,-8.809019363728538,0.1742857142857151,36.48119263461593,-76.81638261371626,0,0,101196.91600000003,,,112.53:449.0;,-35.919999999999234,
27,2024-03-14 21:58:00,120.5,120.451,120.59,120.45,16165.0,1947632.0,1710424680,,,,,1.0,,,,,,-7.476075999768412,13.958488726238896,0.8242857142857117,68.891229502474,-67.77120208177259,1,0,50707.41600000003,120.5:419.0;,120.5:419.0;,,0.0,120.5;
31,2024-03-14 22:02:00,120.19,119.98,120.19,119.98,90197.0,10834880.0,1710424920,,,,,,,,,,,-2.131460981689401,13.414799401958746,0.8785714285714263,65.62189772707,-29.05145836034121,0,0,101067.02600000003,,,120.19:419.0;,-129.89000000000095,
353,2024-03-19 03:24:00,128.69,128.64,128.69,128.64,14468.0,1861376.0,1710789840,1.0,,,,,,,,,,5.98278707807836,-2.727418531983659,0.155785714285713,81.00439297985244,-68.58252364245861,1,0,50620.54600000003,128.69:392.0;,128.69:392.0;,,0.0,128.69;
357,2024-03-19 03:28:00,128.65,128.66,128.66,128.61,14972.0,1925440.0,1710790080,,,,,,,,,,,10.109771579648452,-5.329398333015419,0.155785714285713,81.00439297985244,-41.14482700960952,0,0,101051.34600000003,,,128.65:392.0;,-15.67999999999688,
16,2024-03-19 21:47:00,124.9,124.37,125.02,124.37,84716.0,10582784.0,1710856020,1.0,,,,,,,,1.0,,-4.500264136402663,-1.123806226277111,0.6152857142857157,74.51699495930748,-77.22024921994888,1,0,50591.74600000003,124.9:404.0;,124.9:404.0;,,0.0,124.9;
17,2024-03-19 21:48:00,124.4,124.926,124.95,124.4,59302.0,7385200.0,1710856080,,,,,,,,,,,-4.655747491797015,-1.123806226277111,0.6152857142857157,74.51699495930748,-77.90668181735906,0,0,100849.34600000003,,,124.4:404.0;,-202.0,
19,2024-03-19 21:50:00,125.31,125.38,125.59,125.31,79795.0,10007904.0,1710856200,,,,,1.0,,,,,,-1.9788565801157745,-0.6969551172702921,0.695285714285716,74.51699495930748,-69.74380590657753,1,0,50349.416000000034,125.31:403.0;,125.31:403.0;,,0.0,125.31;
21,2024-03-19 21:52:00,125.08,125.38,125.38,125.08,30435.0,3811088.0,1710856320,,,,,,,,,,,-0.1384224204094266,-0.6969551172702921,0.695285714285716,74.51699495930748,-55.21543704884085,0,0,100756.65600000003,,,125.08:403.0;,-92.6900000000016,
245,2024-03-22 01:36:00,123.68,123.69,123.72,123.68,33090.0,4095232.0,1711042560,,,,,,,1.0,,,,-19.79777068027726,-1.971435652181043,0.3204999999999996,-7.048495879329067,-77.60204508416766,1,0,50418.89600000003,123.68:407.0;,123.68:407.0;,,0.0,123.68;
249,2024-03-22 01:40:00,123.55,123.46,123.55,123.44,34215.0,4224768.0,1711042800,,,,,,,,,,,-20.95688762494369,-3.318105826235545,0.3097857142857145,-7.048495879329067,-78.18060495646723,0,0,100703.74600000003,,,123.55:407.0;,-52.91000000000393,
255,2024-03-22 01:46:00,123.3,123.08,123.32,123.08,38305.0,4719232.0,1711043160,,,,,1.0,,,,,,-18.999341445030048,-3.898819991742848,0.328714285714286,-7.048495879329067,-77.4890273046395,1,0,50397.34600000003,123.3:408.0;,123.3:408.0;,,0.0,123.3;
256,2024-03-22 01:47:00,123.0,122.94,123.09,122.94,58218.0,7162240.0,1711043220,,,,,,,,,,,-19.141172248501704,-3.898819991742848,0.328714285714286,-7.048495879329067,-77.80412941583282,0,0,100581.34600000002,,,123.0:408.0;,-122.39999999999884,
269,2024-03-22 02:00:00,122.565,122.61,122.67,122.565,25055.0,3074304.0,1711044000,,,1.0,,,,,,,,-10.446326489191756,-5.585406619872245,0.3633571428571441,-9.672875378827245,-75.01861670996578,1,0,50207.13100000002,122.565:411.0;,122.565:411.0;,,0.0,122.565;
271,2024-03-22 02:02:00,122.39,122.14,122.431,122.14,44909.0,5493248.0,1711044120,,,,,,,,,,,-10.474803288099023,-5.585406619872245,0.3633571428571441,-9.672875378827245,-75.04844043394004,0,0,100509.42100000003,,,122.39:411.0;,-71.92499999999883,
13,2024-03-25 21:44:00,120.47,121.155,121.155,120.47,68918.0,8323008.0,1711374240,1.0,,,,,,,,1.0,,78.64468047135261,7.332224626122624,1.153499999999999,19.86932838012938,66.83040794909033,1,0,50273.43100000003,120.47:417.0;,120.47:417.0;,,0.0,120.47;
20,2024-03-25 21:51:00,120.2,120.375,120.375,120.2,66990.0,8058944.0,1711374660,,,,,,,,,,,74.69825627843053,20.42206720996944,1.2139999999999995,19.86932838012938,51.37878076514802,0,0,100396.83100000003,,,120.2:417.0;,-112.58999999999834,
369,2024-04-02 03:40:00,118.82,118.74,118.83,118.74,7673.0,911936.0,1712000400,,,,,1.0,,,,,,-12.070777180429673,8.98783057865937,0.1513571428571408,88.19190820989675,-76.67378146586618,1,0,100396.83100000003,,,,0.0,
14,2024-04-02 21:45:00,117.206,117.47,117.5,117.206,17901.0,2099752.0,1712065500,1.0,,,,,,,,,,21.729756906590417,6.474858977268653,0.5001428571428568,87.0548094304881,-71.66386230643006,1,0,50232.66300000004,117.206:428.0;,117.206:428.0;,,0.0,117.206;
25,2024-04-02 21:56:00,118.01,118.05,118.13,118.01,17692.0,2088328.0,1712066160,,,,,,,,,,,38.51340984159064,11.48787053951429,0.5572857142857147,87.0548094304881,64.95751542809943,0,0,100740.94300000003,,,118.01:428.0;,344.1120000000009,
336,2024-04-05 03:07:00,118.125,118.15,118.16,118.125,4287.0,506528.0,1712257620,,,,,,,,,1.0,,2.3757228455867434,13.735026322894171,0.2061428571428568,62.495626659663614,-69.1829822662969,1,0,50419.69300000003,118.125:426.0;,118.125:426.0;,,0.0,118.125;
342,2024-04-05 03:13:00,118.045,118.06,118.06,118.035,7392.0,872672.0,1712257980,,,,,,,,,,,1.5151530025656896,9.26388691153184,0.2061428571428558,62.495626659663614,-74.1907456026636,0,0,100706.86300000003,,,118.045:426.0;,-34.07999999999927,
345,2024-04-05 03:16:00,117.93,117.93,117.93,117.93,4451.0,524928.0,1712258160,,,,,,,1.0,,,,2.245957907124426,5.558494590889154,0.2089999999999991,62.495626659663614,-70.52929309767364,1,0,50350.753000000026,117.93:427.0;,117.93:427.0;,,0.0,117.93;
353,2024-04-05 03:24:00,117.865,117.87,117.88,117.865,4601.0,542208.0,1712258640,,,,,,,,,,,3.512200574212501,1.6671938701595934,0.2093571428571416,62.495626659663614,-52.3363016050404,0,0,100679.10800000002,,,117.865:427.0;,-27.755000000005097,
105,2024-04-05 23:16:00,116.895,116.78,116.895,116.78,10066.0,1175736.0,1712330160,1.0,,,,,,,,,,-9.9521786867395,7.843021417444675,0.2809285714285729,17.134364777984246,-76.84112041523753,1,0,50414.25800000002,116.895:430.0;,116.895:430.0;,,0.0,116.895;
106,2024-04-05 23:17:00,116.76,116.705,116.76,116.705,11547.0,1348000.0,1712330220,,,,,,,,,,,-10.440079009976628,7.843021417444675,0.2809285714285729,17.134364777984246,-77.25440885997875,0,0,100621.05800000002,,,116.76:430.0;,-58.04999999999609,
113,2024-04-05 23:24:00,116.48,116.35,116.48,116.315,14801.0,1723296.0,1712330640,,,,,1.0,,,,,,-7.02864672047637,5.2620053834011244,0.276214285714287,17.134364777984246,-74.92854530712948,1,0,50301.69800000002,116.48:432.0;,116.48:432.0;,,0.0,116.48;
114,2024-04-05 23:25:00,116.349,116.31,116.35,116.3,17490.0,2034728.0,1712330700,,,,,,,,,,,-7.274728758851598,2.95879316396055,0.2505714285714303,17.134364777984246,-75.62774003791328,0,0,100564.46600000001,,,116.349:432.0;,-56.5920000000001,
87,2024-04-10 22:58:00,119.06,119.026,119.06,119.026,15078.0,1794816.0,1712761080,,,,,,,1.0,,,,13.139581199131868,-18.954693401061604,0.4960000000000012,103.12862877813076,-71.32878848632016,1,0,50321.146000000015,119.06:422.0;,119.06:422.0;,,0.0,119.06;
114,2024-04-10 23:25:00,119.35,119.33,119.35,119.29,5157.0,615520.0,1712762700,,,,,,,,,,,56.59854859698841,-27.20857684808641,0.3038571428571452,96.943566123642,79.05577217677747,0,0,100686.84600000002,,,119.35:422.0;,122.37999999999664,
203,2024-04-13 00:54:00,116.93,116.82,116.94,116.82,7069.0,826464.0,1712940840,,,,,1.0,,,,,,-0.1154909323383961,1.8253246927175013,0.206785714285714,29.803218729568187,-75.43436569594051,1,0,50406.94600000002,116.93:430.0;,116.93:430.0;,,0.0,116.93;
208,2024-04-13 00:59:00,116.815,116.96,116.96,116.815,7757.0,906688.0,1712941140,,,,,,,,,,,2.0193640804428057,0.1658319401548738,0.1917857142857144,29.803218729568187,-68.9274483594841,0,0,100637.39600000001,,,116.815:430.0;,-49.45000000000391,
366,2024-04-13 03:37:00,115.45,115.53,115.53,115.45,31651.0,3654464.0,1712950620,,,,,1.0,,,,,,1.3874279390261748,-5.904968279552129,0.1892142857142837,0.9071436888007298,-72.98947226211295,1,0,100637.39600000001,,,,0.0,
8,2024-04-15 21:39:00,114.895,114.92,115.1,114.895,45869.0,5273696.0,1713188340,1.0,,,,,,,,,,24.005346416640734,9.90163969040982,0.3637857142857135,-8.823049630686839,-64.98006727545935,1,0,50428.28100000001,114.895:437.0;,114.895:437.0;,,0.0,114.895;
10,2024-04-15 21:41:00,114.68,114.78,114.97,114.68,46472.0,5333960.0,1713188460,,,,,,,,,,,15.751301193647803,7.819600786710676,0.445928571428571,-8.823049630686839,-74.82166316652935,0,0,100543.44100000002,,,114.68:437.0;,-93.95499999999528,
13,2024-04-15 21:44:00,114.54,114.99,114.99,114.51,30306.0,3476592.0,1713188640,,,,,1.0,,,,,,14.015127955711831,7.819600786710676,0.445928571428571,-8.823049630686839,-71.91527557405887,1,0,50260.381000000016,114.54:439.0;,114.54:439.0;,,0.0,114.54;
17,2024-04-15 21:48:00,114.91,114.935,114.935,114.86,21095.0,2423288.0,1713188880,,,,,,,,,,,18.86546225915435,11.676262757727764,0.5137857142857142,-8.823049630686839,3.9627721687088577,0,0,100705.87100000001,,,114.91:439.0;,162.42999999999574,
269,2024-04-16 02:00:00,113.801,113.77,113.801,113.665,41534.0,4722880.0,1713204000,,,,,,,1.0,,,,2.162705498805757,3.651615497160151,0.2710714285714236,-11.627423043526726,-76.13888758750598,1,0,50405.82900000001,113.801:442.0;,113.801:442.0;,,0.0,113.801;
272,2024-04-16 02:03:00,113.63,113.6,113.63,113.59,22255.0,2528416.0,1713204180,,,,,,,,,,,-0.0705421640585441,3.651615497160151,0.2710714285714236,-11.627423043526726,-74.44152611648772,0,0,100630.28900000002,,,113.63:442.0;,-75.58200000000286,
22,2024-04-19 21:53:00,111.955,111.92,111.955,111.89,31217.0,3494872.0,1713534780,1.0,,,,,,,,,,15.759165473830867,-4.474778042445351,0.4684285714285719,63.2851980406808,-71.34738254200819,1,0,50362.49400000002,111.955:449.0;,111.955:449.0;,,0.0,111.955;
27,2024-04-19 21:58:00,111.805,111.94,111.955,111.805,22944.0,2566944.0,1713535080,,,,,,,,,,,4.536971981458265,-5.412348188458495,0.4769999999999998,63.2851980406808,-75.81670677002016,0,0,100562.93900000001,,,111.805:449.0;,-67.34999999999617,
47,2024-04-19 22:18:00,111.245,110.99,111.245,110.92,61410.0,6821392.0,1713536280,,,,,,,,,1.0,,0.3401646369367199,-7.158888128295956,0.6010000000000011,54.286520955990575,-62.95945498443987,1,0,50280.19900000001,111.245:452.0;,111.245:452.0;,,0.0,111.245;
48,2024-04-19 22:19:00,110.99,110.92,110.99,110.91,56536.0,6274688.0,1713536340,,,,,,,,,,,0.9680523631913972,-7.158888128295956,0.6010000000000011,54.286520955990575,-58.30252561488517,0,0,100447.679,,,110.99:452.0;,-115.26000000000437,
39,2024-04-29 22:10:00,125.995,126.005,126.02,125.895,29972.0,3775088.0,1714399800,,,,,,,1.0,,,,-25.863183830444605,16.59826106238549,0.6410714285714302,62.23528413343365,-78.17248247286231,1,0,50301.669,125.995:398.0;,125.995:398.0;,,0.0,125.995;
47,2024-04-29 22:18:00,126.35,126.27,126.355,126.27,13151.0,1661792.0,1714400280,,,,,,,,,,,-8.796280937923385,12.025061289382222,0.6760714285714299,62.23528413343365,-49.57223527946169,0,0,100588.969,,,126.35:398.0;,141.28999999999593,
224,2024-05-01 01:15:00,124.939,124.935,124.94,124.935,4002.0,499936.0,1714497300,,,,,,,1.0,,1.0,,-1.6782589138290476,-12.006154460581683,0.1963571428571415,24.43563409469745,-71.41429357056603,1,0,50363.491,124.939:402.0;,124.939:402.0;,,0.0,124.939;
228,2024-05-01 01:19:00,124.94,124.96,124.97,124.94,5333.0,666400.0,1714497540,,,,,,,,,,,5.199911125673346,-12.006154460581683,0.1963571428571415,24.43563409469745,-0.9950689914691168,0,0,100589.371,,,124.94:402.0;,0.4020000000019195,
45,2024-05-06 22:16:00,137.995,137.795,137.995,137.795,18476.0,2548544.0,1715004960,,,,,,,1.0,,,,-16.475214120845678,15.877977177568653,0.8224285714285722,92.71606711572704,-72.53645897217254,1,0,50359.191,137.995:364.0;,137.995:364.0;,,0.0,137.995;
46,2024-05-06 22:17:00,137.61,137.848,137.99,137.61,14388.0,1982240.0,1715005020,,,,,,,,,,,-14.029339891887687,15.877977177568653,0.8224285714285722,92.71606711572704,-68.16270525836057,0,0,100449.231,,,137.61:364.0;,-140.1399999999967,
43,2024-05-09 22:14:00,137.97,137.82,137.97,137.82,8867.0,1222944.0,1715264040,,,,,1.0,,,,,,-9.402128877950616,14.69625403031644,0.6069999999999993,45.32467375004116,-76.78399551228249,1,0,50228.151,137.97:364.0;,137.97:364.0;,,0.0,137.97;
45,2024-05-09 22:16:00,137.55,137.51,137.595,137.5,7046.0,969024.0,1715264160,,,,,,,,,,,-10.462617346209711,9.13085819296947,0.6377142857142856,45.32467375004116,-77.3702347526885,0,0,100296.351,,,137.55:364.0;,-152.87999999999545,
47,2024-05-09 22:18:00,137.86,137.91,137.91,137.85,16664.0,2297248.0,1715264280,,,,,,,1.0,,,,-4.974788639369265,9.13085819296947,0.6377142857142856,45.32467375004116,-75.34235066459024,1,0,50115.31099999999,137.86:364.0;,137.86:364.0;,,0.0,137.86;
59,2024-05-09 22:30:00,138.16,138.11,138.23,138.07,10613.0,1466304.0,1715265000,,,,,,,,,,,49.60522914860542,3.822653682202642,0.7223571428571428,43.556404595023295,63.00847855584264,0,0,100405.55099999998,,,138.16:364.0;,109.19999999999379,
286,2024-05-10 02:17:00,136.7,136.61,136.7,136.61,9790.0,1337920.0,1715278620,,,,,1.0,,,,,,-14.306626646720089,-4.269573234798443,0.1996428571428583,35.35348859698169,-76.06898429341776,1,0,50236.65099999998,136.7:367.0;,136.7:367.0;,,0.0,136.7;
287,2024-05-10 02:18:00,136.61,136.65,136.66,136.61,3622.0,494784.0,1715278680,,,,,,,,,,,-12.703469149732364,-4.269573234798443,0.1996428571428583,35.35348859698169,-74.0035137698505,0,0,100372.52099999998,,,136.61:367.0;,-33.02999999999082,
26,2024-05-14 21:57:00,137.355,137.4,137.4,137.27,17634.0,2422384.0,1715695020,1.0,,,,,,,,,,-19.884839304656424,16.958847417125767,0.6499999999999956,70.57319977219301,-76.6303902480542,1,0,50237.94599999998,137.355:365.0;,137.355:365.0;,,0.0,137.355;
32,2024-05-14 22:03:00,137.54,137.74,137.75,137.54,11380.0,1566064.0,1715695380,,,,,,,,,,,-6.5639998839047,15.100300898441631,0.7087142857142814,63.631773650264606,-59.00732196756648,0,0,100440.04599999997,,,137.54:365.0;,67.52500000000083,
3,2024-05-20 21:34:00,147.358,145.89,147.358,145.855,209211.0,30630160.0,1716212040,1.0,,,,,,,,,,40.68482338329875,-5.530532930345274,0.2557857142857114,79.60640074260948,-39.41519054226876,1,0,50338.32599999997,147.358:340.0;,147.358:340.0;,,0.0,147.358;
4,2024-05-20 21:35:00,146.22,146.39,146.54,146.22,81289.0,11888880.0,1716212100,,,,,,,,,,,38.92075431816677,-1.468008477688585,0.4357857142857101,79.60640074260948,-60.1609315226076,0,0,100053.12599999997,,,146.22:340.0;,-386.9200000000018,
282,2024-05-22 02:13:00,144.675,144.62,144.71,144.61,14100.0,2038656.0,1716315180,,,,,,,1.0,,,,11.003382384084205,4.412403648330425,0.3207857142857132,52.30577027819845,-68.34963997244412,1,0,50140.25099999997,144.675:345.0;,144.675:345.0;,,0.0,144.675;
284,2024-05-22 02:15:00,144.49,144.69,144.69,144.49,20727.0,2995200.0,1716315300,,,,,,,,,,,10.67007137609487,1.7239822960267617,0.308642857142857,52.30577027819845,-73.64504161792381,0,0,99989.30099999998,,,144.49:345.0;,-63.825000000000784,
62,2024-05-31 22:33:00,148.84,148.62,148.84,148.62,48979.0,7284896.0,1717165980,1.0,,,,,,,,,,0.7662980147891503,8.749972527386177,0.7270000000000039,34.05141312509306,-76.76570450480916,1,0,50127.900999999976,148.84:335.0;,148.84:335.0;,,0.0,148.84;
68,2024-05-31 22:39:00,148.58,148.73,148.75,148.56,43119.0,6407840.0,1717166340,,,,,,,,,,,-1.5343860214024758,6.097748297053435,0.7187857142857196,34.05141312509306,-75.25411557717466,0,0,99902.20099999997,,,148.58:335.0;,-87.09999999999695,
89,2024-06-04 23:00:00,144.88,144.885,144.92,144.84,11392.0,1651168.0,1717513200,,,,,,,1.0,,,,16.735469847675873,2.161210603841738,0.4724999999999966,5.661089983520206,-73.78449829171943,1,0,50063.48099999997,144.88:344.0;,144.88:344.0;,,0.0,144.88;
96,2024-06-04 23:07:00,144.83,144.905,144.95,144.82,13360.0,1936128.0,1717513620,,,,,,,,,,,11.386393204598017,-1.034375239439214,0.4617857142857104,5.661089983520206,-56.89511695284086,0,0,99885.00099999997,,,144.83:344.0;,-17.199999999994134,
190,2024-06-12 00:41:00,147.37,147.47,147.47,147.36,7022.0,1034752.0,1718124060,1.0,,,,,,,,,,6.729482299037365,3.165108102810976,0.2398571428571451,108.57170634661156,-75.99842427251265,1,0,50073.94099999997,147.37:338.0;,147.37:338.0;,,0.0,147.37;
197,2024-06-12 00:48:00,147.45,147.46,147.46,147.415,7592.0,1119232.0,1718124480,,,,,,,,,,,15.69983667665631,1.424808020923393,0.2445000000000021,108.57170634661156,-49.426761222548,0,0,99912.04099999997,,,147.45:338.0;,27.03999999999462,
6,2024-06-20 21:37:00,144.29,145.03,145.03,144.29,61090.0,8847160.0,1718890620,1.0,,,,,,,,,,67.14689821668014,-5.831086318394881,0.3475714285714316,20.820623025602323,68.16862062252258,1,0,49987.70099999997,144.29:346.0;,144.29:346.0;,,0.0,144.29;
15,2024-06-20 21:46:00,144.89,144.85,145.115,144.85,28893.0,4187648.0,1718891160,,,,,,,,,,,83.86116870334638,4.002552439529282,0.4554285714285718,20.820623025602323,74.85569415351446,0,0,100119.64099999997,,,144.89:346.0;,207.59999999999803,
43,2024-06-20 22:14:00,142.82,142.63,142.86,142.61,33931.0,4843040.0,1718892840,,,,,,,1.0,,1.0,,-11.793583375916064,-5.50765439195213,0.6702857142857154,17.911156016136317,-75.92364966903286,1,0,50275.460999999974,142.82:349.0;,142.82:349.0;,,0.0,142.82;
45,2024-06-20 22:16:00,142.49,142.49,142.7,142.49,48790.0,6955232.0,1718892960,,,,,,,,,,,-12.127435142624492,-7.741416558037415,0.7032857142857166,17.911156016136317,-76.53499809343715,0,0,100004.47099999998,,,142.49:349.0;,-115.16999999999445,
65,2024-06-21 22:36:00,140.574,140.61,140.61,140.47,28212.0,3964416.0,1718980560,,,,,,,1.0,,,,-1.7576549014006917,0.1554424593823427,0.6487142857142872,5.898192155334449,-77.0031455256523,1,0,50100.70099999997,140.574:355.0;,140.574:355.0;,,0.0,140.574;
113,2024-06-21 23:24:00,141.78,141.81,141.81,141.78,2531.0,358624.0,1718983440,,,,,,,,,,,127.73912469610272,1.851622618804185,0.3044999999999963,4.915154101994183,75.04316311690879,0,0,100432.60099999997,,,141.78:355.0;,428.129999999996,
124,2024-06-24 23:35:00,141.62,141.66,141.69,141.62,20283.0,2873536.0,1719243300,,,,,1.0,,1.0,,,,-3.458687809317599,15.106103505224011,0.3457857142857169,38.9210758411834,-71.90967888227192,1,0,50299.12099999996,141.62:354.0;,141.62:354.0;,,0.0,141.62;
127,2024-06-24 23:38:00,141.55,142.12,142.12,141.55,13342.0,1892320.0,1719243480,,,,,,,,,,,5.403958932833184,15.106103505224011,0.3457857142857169,38.9210758411834,-56.18304741056285,0,0,100407.82099999997,,,141.55:354.0;,-24.779999999997585,
6,2024-06-26 21:37:00,139.26,138.77,139.26,138.76,19571.0,2722304.0,1719409020,1.0,,,,,,,,,,18.12561395351393,0.2862937659228919,0.4353571428571428,11.727499363174154,64.69890206808557,1,0,50274.22099999997,139.26:360.0;,139.26:360.0;,,0.0,139.26;
7,2024-06-26 21:38:00,138.86,138.69,138.86,138.69,22097.0,3066304.0,1719409080,,,,,,,,,,,16.81950365231682,0.2862937659228919,0.4353571428571428,11.727499363174154,61.00594124705863,0,0,100263.82099999997,,,138.86:360.0;,-143.99999999999181,
220,2024-06-27 01:11:00,137.57,137.25,137.57,136.925,158345.0,21737152.0,1719421860,,,,,,,,,1.0,,-6.510120780888229,16.97272915289009,0.2721428571428532,5.698324070571857,-73.35371861276235,1,0,50188.34099999997,137.57:364.0;,137.57:364.0;,,0.0,137.57;
221,2024-06-27 01:12:00,137.31,136.81,137.31,136.41,195697.0,26757824.0,1719421920,,,,,,,,,,,-7.259479296099769,16.97272915289009,0.2721428571428532,5.698324070571857,-74.30087480632939,0,0,100169.18099999998,,,137.31:364.0;,-94.63999999999669,
223,2024-06-27 01:14:00,136.62,136.97,137.39,136.62,183677.0,25119040.0,1719422040,,,,,,,1.0,,,,-6.174182968907715,16.97272915289009,0.2721428571428532,5.698324070571857,-74.56478547024221,1,0,50029.64099999998,136.62:367.0;,136.62:367.0;,,0.0,136.62;
225,2024-06-27 01:16:00,136.37,137.13,137.13,136.306,182945.0,24947712.0,1719422160,,,,,,,,,,,-6.30738945145616,13.633432566454154,0.3532142857142832,5.698324070571857,-76.188127766901,0,0,100077.43099999998,,,136.37:367.0;,-91.75,
226,2024-06-27 01:17:00,137.31,136.76,137.5,136.7,123899.0,16993280.0,1719422220,,,,,1.0,,,,,,-5.848106509551613,13.633432566454154,0.3532142857142832,5.698324070571857,-73.90030655740864,1,0,49959.28099999998,137.31:365.0;,137.31:365.0;,,0.0,137.31;
227,2024-06-27 01:18:00,136.99,137.2,137.48,136.99,116098.0,15932672.0,1719422280,,,,,,,,,,,-2.4100269026409933,13.633432566454154,0.3532142857142832,5.698324070571857,-73.7497659423534,0,0,99960.631,,,136.99:365.0;,-116.79999999999751,
250,2024-06-28 01:41:00,132.771,132.79,132.81,132.77,15768.0,2092800.0,1719510060,,,,,,,1.0,,,,15.831754084354223,-4.937985426422429,0.181285714285715,5.01248855589461,-57.45101185206155,1,0,50038.735,132.771:376.0;,132.771:376.0;,,0.0,132.771;
253,2024-06-28 01:44:00,132.711,132.71,132.73,132.7,10605.0,1406400.0,1719510240,,,,,,,,,,,11.1387170924699,-4.937985426422429,0.181285714285715,5.01248855589461,-66.76576228300117,0,0,99938.071,,,132.711:376.0;,-22.55999999999017,
71,2024-07-01 22:42:00,130.97,130.5,130.97,130.5,90292.0,11791328.0,1719844920,1.0,,,,,,,,,,8.771681879977443,1.6743541532186723,0.594142857142858,15.01622372916316,-63.10801822766897,1,0,50038.501,130.97:381.0;,130.97:381.0;,,0.0,130.97;
72,2024-07-01 22:43:00,130.625,130.935,130.935,130.625,69894.0,9127648.0,1719844980,,,,,,,,,,,10.88936299428211,1.6743541532186723,0.594142857142858,15.01622372916316,-71.70584683243426,0,0,99806.62599999999,,,130.625:381.0;,-131.44499999999957,
73,2024-07-01 22:44:00,130.9,130.65,130.92,130.65,55144.0,7216560.0,1719845040,,,,,,,,,1.0,,9.891375132744855,1.6743541532186723,0.594142857142858,15.01622372916316,-59.0729992379641,1,0,49933.72599999999,130.9:381.0;,130.9:381.0;,,0.0,130.9;
74,2024-07-01 22:45:00,130.585,130.34,130.585,130.32,54460.0,7104128.0,1719845100,,,,,,,,,,,7.674238216490512,-0.3455872379597906,0.4805714285714292,15.01622372916316,-64.59682423854423,0,0,99686.61099999999,,,130.585:381.0;,-120.01499999999913,
62,2024-07-02 22:33:00,131.76,131.52,131.76,131.52,15669.0,2063184.0,1719930780,1.0,,,,,,,,,,-8.890871417692836,7.154177104568291,0.547785714285711,28.037048193569376,-72.65666749289913,1,0,49881.33099999999,131.76:378.0;,131.76:378.0;,,0.0,131.76;
69,2024-07-02 22:40:00,131.65,131.81,131.81,131.65,5759.0,758416.0,1719931200,,,,,,,,,,,23.70781783067661,3.3443585616632845,0.5352857142857103,28.037048193569376,40.20937636136267,0,0,99645.03099999999,,,131.65:378.0;,-41.57999999999441,
12,2024-07-05 21:43:00,135.05,135.18,135.18,135.05,48228.0,6515960.0,1720186980,1.0,,,,,,,,,,19.9565992059334,8.378028159612796,0.297857142857146,100.33053477012224,-75.0577491113413,1,0,49946.63099999999,135.05:368.0;,135.05:368.0;,,0.0,135.05;
16,2024-07-05 21:47:00,135.175,135.15,135.175,135.035,20901.0,2824352.0,1720187220,,,,,,,,,,,7.543649650029664,7.315915260047305,0.35957142857143,100.33053477012224,-72.55460323907036,0,0,99691.03099999999,,,135.175:368.0;,46.0,
28,2024-07-05 21:59:00,133.9,133.435,133.9,133.435,63096.0,8434384.0,1720187940,,,,,,,,,1.0,,-21.38369691013041,0.1022417881670065,0.4556428571428564,100.33053477012224,-77.93343241902372,1,0,49880.230999999985,133.9:372.0;,133.9:372.0;,,0.0,133.9;
32,2024-07-05 22:03:00,133.871,133.73,133.91,133.73,18515.0,2477712.0,1720188180,,,,,,,,,,,-19.378890443449635,-1.106311229107618,0.5319285714285696,93.50954980507444,-74.46942587937541,0,0,99680.24299999999,,,133.871:372.0;,-10.787999999998647,
347,2024-07-13 03:18:00,142.23,142.25,142.279,142.23,8768.0,1246016.0,1720811880,,,,,1.0,,,,,,-2.840405023490277,10.808490628628576,0.1721428571428487,74.00713090210988,-72.26545771850057,1,0,49899.74299999999,142.23:350.0;,142.23:350.0;,,0.0,142.23;
363,2024-07-13 03:34:00,142.265,142.3,142.3,142.25,12565.0,1786176.0,1720812840,,,,,,,,,,,14.24724282391276,2.486283160219031,0.1728571428571318,72.15348615554947,50.8410002885996,0,0,99692.49299999999,,,142.265:350.0;,12.249999999998806,
5,2024-07-15 21:36:00,135.505,135.13,135.52,134.995,207319.0,28044960.0,1721050560,1.0,,,,,,,,,,25.48726966168259,-4.882920487815298,0.7157857142857093,75.29517507645605,-74.46429066963293,1,0,49962.15799999999,135.505:367.0;,135.505:367.0;,,0.0,135.505;
6,2024-07-15 21:37:00,134.92,134.64,135.045,134.64,162811.0,21969296.0,1721050620,,,,,,,,,,,20.708870268781503,-4.882920487815298,0.7157857142857093,75.29517507645605,-75.78941424384955,0,0,99477.79799999998,,,134.92:367.0;,-214.69500000000292,
19,2024-07-17 21:50:00,132.46,132.45,132.52,132.44,60447.0,8008576.0,1721224200,1.0,,,,,,,,,,5.461984410064446,4.435639375078011,0.5117857142857157,15.179574381304365,-75.79141876938692,1,0,49805.29799999998,132.46:375.0;,132.46:375.0;,,0.0,132.46;
30,2024-07-17 22:01:00,132.715,132.54,132.715,132.54,22514.0,2986112.0,1721224860,,,,,,,,,,,5.734653967800657,2.937657185549824,0.5789285714285707,11.396551024363916,34.627482848561435,0,0,99573.42299999998,,,132.715:375.0;,95.6249999999983,
176,2024-07-18 00:27:00,130.48,130.3,130.5,130.3,38094.0,4971392.0,1721233620,,,,,,,1.0,,1.0,,-22.365414052731445,7.637919191296728,0.3142857142857106,1.2354508084988538,-78.15772575428643,1,0,49860.54299999998,130.48:381.0;,130.48:381.0;,,0.0,130.48;
178,2024-07-18 00:29:00,130.53,130.68,130.68,130.53,22489.0,2935872.0,1721233740,,,,,1.0,,,,,,-17.761181402419467,7.637919191296728,0.3142857142857106,1.2354508084988538,-77.56236294185145,1,0,128.612999999983,130.48:381.0;130.53:381.0;,130.53:381.0;,,0.0,130.53;130.53;
192,2024-07-18 00:43:00,131.225,131.25,131.253,131.225,7447.0,977024.0,1721234580,,,,,,,,,,,53.29897408830121,10.855256773323347,0.3449999999999988,-0.5053283871443455,63.16157748415654,0,0,100122.06299999998,,,131.225:381.0;131.225:381.0;,548.6399999999992,
105,2024-07-18 23:16:00,130.39,130.485,130.57,130.39,14926.0,1947824.0,1721315760,,,,,1.0,,1.0,,,,-3.653507177519821,2.777067320208161,0.3998571428571397,9.828826547813756,-77.57276715529356,1,0,50182.692999999985,130.39:383.0;,130.39:383.0;,,0.0,130.39;
120,2024-07-18 23:31:00,130.86,130.88,131.01,130.81,20815.0,2726256.0,1721316660,,,,,,,,,,,41.17661592504869,-3.2823956031464974,0.4016428571428544,8.760156230662528,79.51071751936647,0,0,100302.07299999999,,,130.86:383.0;,180.01000000001045,
273,2024-07-25 02:04:00,132.23,132.19,132.23,132.18,6465.0,854400.0,1721844240,,,,,1.0,,,,,,-22.11698383201357,16.758889714029294,0.1691428571428547,17.392431105568676,-76.17695802562976,1,0,50186.90299999999,132.23:379.0;,132.23:379.0;,,0.0,132.23;
280,2024-07-25 02:11:00,132.21,132.28,132.28,132.21,2245.0,296864.0,1721844660,,,,,,,,,,,-15.009399084935808,8.217337188918037,0.1723571428571395,17.392431105568676,-73.79729610967543,0,0,100294.49299999999,,,132.21:379.0;,-7.579999999993106,
303,2024-07-25 02:34:00,131.76,131.78,131.78,131.76,5486.0,722848.0,1721846040,,,,,,,,,1.0,,-14.605901394124317,-4.675172681770505,0.1648571428571383,12.07909936958228,-78.25334916729116,1,0,50225.69299999999,131.76:380.0;,131.76:380.0;,,0.0,131.76;
307,2024-07-25 02:38:00,131.71,131.67,131.73,131.67,7007.0,922816.0,1721846280,,,,,,,,,,,-12.427072559162813,-6.827697509908361,0.1609285714285684,12.07909936958228,-77.3957029383337,0,0,100275.49299999999,,,131.71:380.0;,-18.99999999999352,
3,2024-07-26 21:34:00,128.695,128.66,128.809,128.66,18520.0,2383452.0,1722000840,1.0,,,,,,,,,,2.7562068435514604,-1.5554508743621795,0.3223571428571412,13.57932918690323,-51.00238238667016,1,0,50213.13799999999,128.695:389.0;,128.695:389.0;,,0.0,128.695;
5,2024-07-26 21:36:00,128.44,128.29,128.5,128.23,31306.0,4019996.0,1722000960,,,,,,,,,,,1.2329705248866532,-1.9860077438864887,0.5127142857142856,13.57932918690323,-47.224722689586976,0,0,100176.29799999998,,,128.44:389.0;,-99.19499999999823,
69,2024-07-29 22:40:00,126.901,126.91,126.95,126.9,27194.0,3451424.0,1722264000,,,,,,,1.0,,1.0,,-8.844447484206341,5.274322676799926,0.9432857142857144,37.63793148883211,-62.02203783205433,1,0,50177.30399999998,126.901:394.0;,126.901:394.0;,,0.0,126.901;
85,2024-07-29 22:56:00,127.0,127.0,127.07,126.97,22642.0,2875968.0,1722264960,,,,,,,,,,,10.438626449115734,0.229128274304216,0.3874999999999988,37.63793148883211,-53.28021110634868,0,0,100215.30399999997,,,127.0:394.0;,39.00600000000148,
68,2024-07-30 22:39:00,126.08,125.955,126.09,125.955,10610.0,1336992.0,1722350340,1.0,,,,,,,,,,2.6434023894598724,4.391857745590315,0.49842857142857,7.079361941851602,-75.78352875011178,1,0,50161.54399999997,126.08:397.0;,126.08:397.0;,,0.0,126.08;
69,2024-07-30 22:40:00,125.85,126.06,126.06,125.8,34018.0,4284256.0,1722350400,,,,,,,,,,,5.234481601702996,2.665254526617602,0.5087857142857136,7.079361941851602,-77.05281736760439,0,0,100123.99399999998,,,125.85:397.0;,-91.31000000000158,
129,2024-07-30 23:40:00,124.805,124.7,124.805,124.66,7178.0,895520.0,1722354000,,,,,,,,,1.0,,9.308037856455272,-11.275444174629255,0.2939285714285741,0.3476749402356489,-73.77474799173186,1,0,50077.18899999998,124.805:401.0;,124.805:401.0;,,0.0,124.805;
131,2024-07-30 23:42:00,124.631,124.75,124.75,124.631,26205.0,3268064.0,1722354120,,,,,,,1.0,,,,8.78341186634444,-11.275444174629255,0.2939285714285741,0.3476749402356489,-70.21515536068456,1,0,50077.18899999998,124.631:401.0;,124.631:401.0;,124.631:401.0;,-69.77400000000264,124.631;
137,2024-07-30 23:48:00,124.62,124.6,124.65,124.56,16969.0,2114560.0,1722354480,,,,,,,,,,,4.647028746419167,-11.361263908867931,0.2992857142857171,0.3476749402356489,-67.70739837577231,0,0,100049.80899999998,,,124.62:401.0;,-4.410999999998268,
213,2024-07-31 01:04:00,123.39,123.365,123.403,123.356,14246.0,1758208.0,1722359040,,,,,1.0,,,,,,-7.867195681300281,-8.834698745658521,0.2732142857142869,-7.304206974705714,-73.1696261963326,1,0,49953.468999999975,123.39:406.0;,123.39:406.0;,,0.0,123.39;
233,2024-07-31 01:24:00,123.5,123.46,123.5,123.46,3940.0,486624.0,1722360240,,,,,,,,,,,19.9259967874042,-8.056952168512176,0.2264285714285715,-7.304206974705714,64.43376537795541,0,0,100094.46899999998,,,123.5:406.0;,44.65999999999977,
179,2024-08-02 00:30:00,128.02,128.15,128.15,128.02,4422.0,566240.0,1722529800,,,,,1.0,,,,1.0,,4.529652300096849,12.773535082267388,0.3196428571428588,82.9086422986018,-74.57961516302119,1,0,50166.66899999998,128.02:390.0;,128.02:390.0;,,0.0,128.02;
186,2024-08-02 00:37:00,128.04,128.165,128.165,128.03,27084.0,3468928.0,1722530220,,,,,,,,,,,5.935481557382296,9.336624540639493,0.298571428571429,82.9086422986018,22.392372686904626,0,0,100102.26899999997,,,128.04:390.0;,7.799999999992906,
251,2024-08-02 01:42:00,127.68,127.69,127.73,127.68,9243.0,1180352.0,1722534120,,,,,,,1.0,,,,-14.374028749846936,-11.636367269528025,0.2896428571428596,85.79407728619992,-77.7526207593148,1,0,50179.38899999997,127.68:391.0;,127.68:391.0;,,0.0,127.68;
256,2024-08-02 01:47:00,127.535,127.47,127.535,127.47,6492.0,827584.0,1722534420,,,,,,,,,,,-15.23508586057769,-14.24405720744953,0.297857142857146,85.79407728619992,-76.13681351305195,0,0,100045.57399999996,,,127.535:391.0;,-56.695000000004,
320,2024-08-08 02:51:00,132.86,132.85,132.86,132.82,5178.0,687840.0,1723056660,,,,,,,,,1.0,,9.826179702722882,-10.664863502652452,0.3223571428571432,102.72456181164102,-65.73531421462948,1,0,50090.213999999956,132.86:376.0;,132.86:376.0;,,0.0,132.86;
323,2024-08-08 02:54:00,132.78,132.79,132.795,132.71,5001.0,664000.0,1723056840,,,,,,,,,,,9.438524539374107,-10.664863502652452,0.3223571428571432,102.72456181164102,-55.16852864197337,0,0,100015.49399999995,,,132.78:376.0;,-30.080000000004702,
58,2024-08-14 22:29:00,142.085,142.0,142.085,142.0,13859.0,1968704.0,1723645740,,,,,,,1.0,,,,-16.393425331003932,10.443822732349446,0.7221428571428561,93.02145544452532,-77.71283691414803,1,0,50143.65899999994,142.085:351.0;,142.085:351.0;,,0.0,142.085;
67,2024-08-14 22:38:00,141.67,141.6,141.72,141.6,20781.0,2944832.0,1723646280,,,,,,,,,,,-13.23811683709335,-0.4499882389034155,0.726071428571428,86.13001938872017,-75.34175663032477,0,0,99869.82899999994,,,141.67:351.0;,-145.66500000000718,
183,2024-08-21 00:34:00,144.24,144.12,144.24,144.11,6300.0,908544.0,1724171640,,,,,1.0,,,,,,-8.09694605325464,-8.246057157052036,0.3455000000000012,50.27839569730034,-77.34472613247124,1,0,49962.78899999994,144.24:346.0;,144.24:346.0;,,0.0,144.24;
196,2024-08-21 00:47:00,144.63,144.79,144.79,144.6,31863.0,4608896.0,1724172420,,,,,,,,,,,26.287652096260548,-11.88332814891438,0.3497857142857116,50.27839569730034,83.07356408006615,0,0,100004.76899999994,,,144.63:346.0;,134.93999999999528,
305,2024-08-21 02:36:00,144.06,144.0,144.06,144.0,24872.0,3581632.0,1724178960,,,,,1.0,,,,,,-24.721964590534533,2.505496554740517,0.225285714285714,14.238552080166812,-78.45727263127532,1,0,50160.00899999994,144.06:346.0;,144.06:346.0;,,0.0,144.06;
313,2024-08-21 02:44:00,144.1,144.155,144.155,144.045,10136.0,1460800.0,1724179440,,,,,,,,,,,-8.49727403051115,1.0580547898142925,0.2067142857142861,14.238552080166812,-70.84116053208686,0,0,100018.60899999994,,,144.1:346.0;,13.839999999997247,
45,2024-08-23 22:16:00,139.43,139.57,139.84,139.43,102247.0,14275904.0,1724422560,,,,,,,1.0,,,,-4.009837708678489,16.45662198219199,1.2443571428571425,38.992768595856745,-77.1064438447583,1,0,50102.668999999936,139.43:358.0;,139.43:358.0;,,0.0,139.43;
47,2024-08-23 22:18:00,139.09,139.16,139.16,139.0,133902.0,18616512.0,1724422680,,,,,,,,,,,-1.421113645022178,16.45662198219199,1.2443571428571425,38.992768595856745,-71.18350661071527,0,0,99896.88899999994,,,139.09:358.0;,-121.72000000000122,
41,2024-08-26 22:12:00,102.305,102.18,102.39,102.15,233444.0,23864832.0,1724681520,,,1.0,,,,,,,,-11.315636284598622,18.29205021166805,3.6407142857142825,-3.8375255414599536,-78.3845234586104,1,0,49972.04899999993,102.305:488.0;,102.305:488.0;,,0.0,102.305;
48,2024-08-26 22:19:00,100.1,99.97,100.1,99.97,1140184.0,114246656.0,1724681940,,,,,,,,,,,-8.988955871729459,12.825103066318306,3.6971428571428553,-3.8375255414599536,-79.02234414837386,0,0,98820.84899999993,,,100.1:488.0;,-1076.040000000006,
98,2024-08-27 23:09:00,96.81,96.66,96.83,96.66,83220.0,8063104.0,1724771340,,,1.0,,,,,,,,1.7221972590151324,-15.5846909812346,0.57792857142857,5.676905092889246,18.32947201550613,1,0,49447.74899999993,96.81:510.0;,96.81:510.0;,,0.0,96.81;
113,2024-08-27 23:24:00,96.895,96.9,96.94,96.89,90588.0,8786560.0,1724772240,,,,,,,,,,,16.275630947118103,-18.135193719457877,0.4422142857142849,5.676905092889246,79.14660095505222,0,0,98864.19899999994,,,96.895:510.0;,43.34999999999681,
5,2024-08-28 21:36:00,93.89,93.955,93.955,93.89,145468.0,13657888.0,1724852160,1.0,,,,,,,,1.0,,23.364221314248887,18.397466420436373,0.493785714285713,0.2764699065453264,-14.489651790128956,1,0,49478.058999999936,93.89:526.0;,93.89:526.0;,,0.0,93.89;
8,2024-08-28 21:39:00,93.355,92.411,93.355,92.411,488262.0,45418016.0,1724852340,,,,,,,,,,,13.741918564982818,18.397466420436373,0.493785714285713,0.2764699065453264,-60.93165742299933,0,0,98582.78899999993,,,93.355:526.0;,-281.4099999999982,
10,2024-08-28 21:41:00,92.86,92.965,92.98,92.86,184744.0,17171200.0,1724852460,,,,,,,1.0,,,,10.641298148957851,16.84868178155247,0.5927142857142849,0.2764699065453264,-70.95228675156243,1,0,49181.268999999935,92.86:532.0;,92.86:532.0;,,0.0,92.86;
14,2024-08-28 21:45:00,92.19,92.72,92.96,91.88,1044343.0,96416288.0,1724852700,,,,,,,,,,,5.867837287194995,16.788542446452105,0.6559285714285709,0.2764699065453264,-73.215492122056,0,0,98226.34899999993,,,92.19:532.0;,-356.4400000000009,
15,2024-08-28 21:46:00,92.37,92.783,92.8,92.37,320105.0,29635840.0,1724852760,,,,,1.0,,,,,,6.7117062417048245,16.788542446452105,0.6559285714285709,0.2764699065453264,-67.8572497355077,1,0,48808.398999999925,92.37:535.0;,92.37:535.0;,,0.0,92.37;
20,2024-08-28 21:51:00,92.245,92.014,92.245,91.942,324428.0,29865920.0,1724853060,,,,,,,,,,,3.5467546412023694,15.031259097903217,0.6869999999999996,0.2764699065453264,-63.51907441391134,0,0,98159.47399999993,,,92.245:535.0;,-66.875,
61,2024-08-28 22:32:00,90.44,90.32,90.46,90.32,210515.0,19041280.0,1724855520,,,1.0,,,,,,,,-2.1318164450453594,1.1485181606571755,0.7702857142857117,-0.5702770359404372,-77.36448510926596,1,0,48779.23399999993,90.44:546.0;,90.44:546.0;,,0.0,90.44;
70,2024-08-28 22:41:00,90.23,90.065,90.23,90.065,238864.0,21527808.0,1724856060,,,,,,,,,,,2.2123835676978665,-0.592770786449929,0.734499999999997,-0.5702770359404372,-60.76333561665796,0,0,98044.81399999993,,,90.23:546.0;,-114.65999999999659,
94,2024-08-28 23:05:00,88.98,89.13,89.15,88.98,372532.0,33207552.0,1724857500,,,,,1.0,,,,,,4.077649348811509,-3.324258561195947,0.4361428571428568,-0.9153813574650744,63.55367358877885,1,0,48660.913999999924,88.98:555.0;,88.98:555.0;,,0.0,88.98;
99,2024-08-28 23:10:00,89.29,89.52,89.576,89.285,172148.0,15384320.0,1724857800,,,,,,,,,,,19.828631975231797,-2.2768617573670333,0.443642857142857,-0.9153813574650744,87.00835101736668,0,0,98216.86399999993,,,89.29:555.0;,172.05000000000126,
28,2024-09-04 21:59:00,96.05,95.899,96.05,95.899,44927.0,4312688.0,1725458340,,,,,1.0,,,,,,-16.7357181387126,14.14957125285062,0.4423571428571416,112.5108723275656,-76.1290370916952,1,0,49135.31399999993,96.05:511.0;,96.05:511.0;,,0.0,96.05;
30,2024-09-04 22:01:00,95.8,95.38,95.8,95.36,139935.0,13380624.0,1725458460,,,,,,,,,,,-17.816827616231144,7.305638198393893,0.4630714285714278,109.1551375178459,-76.9462896042096,0,0,98089.11399999993,,,95.8:511.0;,-127.75,
35,2024-09-04 22:06:00,95.08,95.035,95.08,95.01,69168.0,6574912.0,1725458760,,,,,,,1.0,,,,-17.32671471114064,1.600657180638052,0.5423571428571411,109.1551375178459,-77.29156450062422,1,0,49027.83399999993,95.08:516.0;,95.08:516.0;,,0.0,95.08;
43,2024-09-04 22:14:00,94.81,94.9,94.94,94.72,67905.0,6440416.0,1725459240,,,,,,,,,,,-9.693249486760912,-2.024515379899441,0.5659285714285696,109.1551375178459,-71.08648410029684,0,0,97949.79399999994,,,94.81:516.0;,-139.31999999999795,
75,2024-09-04 22:46:00,93.66,93.61,93.71,93.59,59100.0,5530752.0,1725461160,,,1.0,,,,,,,,1.6284426083401584,-23.361062867339285,0.5667857142857124,103.0641141033741,-76.87433115519141,1,0,48871.95399999994,93.66:524.0;,93.66:524.0;,,0.0,93.66;
79,2024-09-04 22:50:00,93.31,93.305,93.342,93.27,59331.0,5537536.0,1725461400,,,,,,,,,,,-0.91462702471026,-25.35940613508421,0.5246428571428551,103.0641141033741,-78.05978963136167,0,0,97766.39399999994,,,93.31:524.0;,-183.39999999999702,
332,2024-09-05 03:03:00,92.1,92.09,92.1,92.05,23011.0,2119936.0,1725476580,,,,,1.0,,,,,,-14.01731102904089,15.011713632728055,0.1593571428571424,22.624537795300967,-76.55325199745262,1,0,48677.09399999995,92.1:533.0;,92.1:533.0;,,0.0,92.1;
338,2024-09-05 03:09:00,92.115,92.12,92.13,92.1,16441.0,1515136.0,1725476940,,,,,,,,,,,-1.4445932125866676,13.3771554557289,0.1593571428571434,22.624537795300967,-61.54874023652032,0,0,97774.38899999994,,,92.115:533.0;,7.995000000000303,
