,dt,open,close,high,low,vol,turnover,ts,icon_1,icon_2,icon_11,icon_12,icon_13,icon_41,icon_34,icon_35,icon_38,icon_39,jw1,jw5,atr5,jw30,baijiao,buy_signal,sell_signal,cash,chicang,buy_detail,sell_detail,profit,max_zhiying_prices
6,2024-01-03 22:37:00,241.87,242.315,242.356,241.87,849775.0,205808384.0,1704292620,1.0,,,,,,,,1.0,,38.14909312205533,10.98983263977415,1.1155714285714242,,-74.86366312048216,1,0,50174.78,241.87:206.0;,241.87:206.0;,,0.0,241.87;
11,2024-01-03 22:42:00,241.76,242.23,242.38,241.73,663320.0,160546048.0,1704292920,,,,,,,,,,,14.383612957674003,8.639041209923889,1.1584999999999954,,-75.52442971535164,0,0,99977.34,,,241.76:206.0;,-22.66000000000281,
18,2024-01-03 22:49:00,241.25,240.97,241.25,240.86,454330.0,109517056.0,1704293340,,,,,1.0,,,,,,-3.679578586303592,4.963081791136361,1.2131428571428535,,-75.40286157736888,1,0,50038.59,241.25:207.0;,241.25:207.0;,,0.0,241.25;
20,2024-01-03 22:51:00,240.55,240.4,240.6,240.4,503592.0,120963328.0,1704293460,,,,,,,,,,,-7.499519272753304,2.388645158735393,1.2573571428571415,,-75.81744664203563,0,0,99832.44,,,240.55:207.0;,-144.89999999999765,
36,2024-01-03 23:07:00,239.745,239.43,239.98,239.43,479878.0,114924032.0,1704294420,,,,,,,1.0,,,,-7.432368492801718,-4.676940285003667,1.3991428571428568,,-69.2601185672658,1,0,49965.48,239.745:208.0;,239.745:208.0;,,0.0,239.745;
38,2024-01-03 23:09:00,239.027,239.261,239.377,238.73,558188.0,133368832.0,1704294540,,,,,,,,,,,-7.528670444863309,-4.676940285003667,1.3991428571428568,,-72.09148861748584,0,0,99683.09599999999,,,239.027:208.0;,-149.3440000000037,
292,2024-01-05 03:23:00,239.425,239.351,239.425,239.305,159968.0,38342656.0,1704396180,1.0,,,,,,,,,,-14.595509955620471,19.11644939623494,0.503857142857143,,-76.35189634187172,1,0,49882.69599999999,239.425:208.0;,239.425:208.0;,,0.0,239.425;
294,2024-01-05 03:25:00,239.18,239.2,239.34,239.171,197040.0,47181824.0,1704396300,,,,,,,,,,,-16.113740952922534,12.087927085037734,0.4930000000000011,,-77.65836857950498,0,0,99632.136,,,239.18:208.0;,-50.960000000000946,
387,2024-01-05 04:58:00,238.12,238.06,238.12,237.95,259624.0,61849600.0,1704401880,,,,,,,,,1.0,,-13.052358234214708,1.8981277510279284,0.5205714285714313,,-76.87807293389976,1,0,99632.136,,,,0.0,
37,2024-01-09 23:08:00,234.1,233.78,234.1,233.5,779956.0,181522432.0,1704812880,,,,,,,1.0,,,,-4.176502063969693,12.76848700206358,0.8861428571428637,64.47010292422664,-73.52328007049879,1,0,50002.936,234.1:212.0;,234.1:212.0;,,0.0,234.1;
42,2024-01-09 23:13:00,233.804,233.48,233.841,233.476,568684.0,132054016.0,1704813180,,,,,,,,,,,-2.985671355612346,6.573840159649933,0.9902142857142918,64.47010292422664,-68.52522424362701,0,0,99569.384,,,233.804:212.0;,-62.75199999999836,
45,2024-01-09 23:16:00,233.49,233.79,233.896,233.49,438620.0,101580800.0,1704813360,,,,,,,,,1.0,,-2.951965214169448,0.1934908073378665,1.0454285714285751,64.47010292422664,-75.63409224388761,1,0,49836.014,233.49:213.0;,233.49:213.0;,,0.0,233.49;
54,2024-01-09 23:25:00,233.445,233.53,233.53,233.445,295234.0,68145664.0,1704813900,,,,,,,,,,,5.472076965923534,-9.497532540385636,1.1067142857142878,64.47010292422664,-68.5976874385311,0,0,99559.799,,,233.445:213.0;,-9.58500000000339,
38,2024-01-11 23:09:00,226.859,226.67,226.859,226.58,303134.0,67985920.0,1704985740,,,,,,,,,1.0,,-2.439674186817492,14.216180265267084,1.336500000000001,19.006600347606277,-76.50540549360852,1,0,49877.678,226.859:219.0;,226.859:219.0;,,0.0,226.859;
64,2024-01-11 23:35:00,227.264,226.96,227.29,226.96,467544.0,105055232.0,1704987300,,,,,,,,,,,47.87038264101393,-2.6580030084604545,1.5380000000000007,17.22859318169833,59.51627169907,0,0,99648.494,,,227.264:219.0;,88.69500000000025,
98,2024-01-13 00:09:00,220.87,221.155,221.169,220.87,323788.0,71537664.0,1705075740,,,,,,,,,1.0,,14.142387592360812,14.810658766981106,0.8492142857142844,11.990600059003564,-72.30345125078998,1,0,49952.744000000006,220.87:225.0;,220.87:225.0;,,0.0,220.87;
111,2024-01-13 00:22:00,221.28,221.55,221.55,221.16,359016.0,79436800.0,1705076520,,,,,,,,,,,70.37719558291514,10.601478350864014,0.7784285714285711,11.990600059003564,70.60614992130235,0,0,99740.744,,,221.28:225.0;,92.24999999999923,
132,2024-01-13 00:43:00,219.64,219.467,219.64,219.4,279028.0,61069312.0,1705077780,,,,,,,1.0,,,,27.90543000557288,4.796273248323303,0.7757142857142867,11.5300691648517,-71.85607855417715,1,0,50102.10400000001,219.64:226.0;,219.64:226.0;,,0.0,219.64;
139,2024-01-13 00:50:00,219.33,218.91,219.375,218.91,802512.0,175044608.0,1705078200,,,,,,,,,,,5.292668418437927,-1.6257265725718495,0.7665000000000016,11.5300691648517,-72.68363789504868,0,0,99670.68400000001,,,219.33:226.0;,-70.05999999999409,
149,2024-01-13 01:00:00,218.26,218.25,218.27,218.161,299200.0,65175552.0,1705078800,,,,,1.0,,,,,,-9.781027399799434,-6.593276377637039,0.7433571428571436,9.58732625417364,-73.89155800499722,1,0,49907.40400000001,218.26:228.0;,218.26:228.0;,,0.0,218.26;
153,2024-01-13 01:04:00,218.0,217.985,218.14,217.86,401592.0,87368704.0,1705079040,,,,,,,,,,,-8.414361351463661,-6.593276377637039,0.7433571428571436,9.58732625417364,-64.5133972656577,0,0,99611.40400000001,,,218.0:228.0;,-59.279999999997926,
138,2024-01-20 00:49:00,207.93,207.92,207.947,207.82,214736.0,44527616.0,1705682940,,,,,,,1.0,,1.0,,12.754613695268231,10.85418763736807,0.7487142857142837,15.436557843012444,-75.87328252669396,1,0,49916.134000000005,207.93:239.0;,207.93:239.0;,,0.0,207.93;
161,2024-01-20 01:12:00,208.52,208.59,208.59,208.4,210664.0,43809792.0,1705684320,,,,,,,,,,,51.854571665462345,4.544757517342703,0.5937857142857175,14.218887036547423,69.59298954361799,0,0,99752.414,,,208.52:239.0;,141.01000000000082,
230,2024-01-23 02:21:00,207.98,208.075,208.075,207.83,217824.0,45166592.0,1705947660,,,,,,,1.0,,,,-8.565915493180626,-15.605070371159307,0.5450714285714265,31.631866137821284,-76.04540092173107,1,0,50045.194,207.98:239.0;,207.98:239.0;,,0.0,207.98;
238,2024-01-23 02:29:00,207.927,207.765,207.927,207.687,308776.0,63967232.0,1705948140,,,,,,,,,,,0.2298056591340582,-15.778214399178722,0.5569285714285692,31.631866137821284,-61.656313314322375,0,0,99739.747,,,207.927:239.0;,-12.666999999999348,
291,2024-01-23 03:22:00,206.605,206.92,207.138,206.605,417392.0,86198272.0,1705951320,,,1.0,,1.0,,,,,,13.731427556343874,-6.511099034096148,0.6026428571428559,25.52248119344199,-77.22795339347483,1,0,49947.942,206.605:241.0;,206.605:241.0;,,0.0,206.605;
315,2024-01-23 03:46:00,207.265,207.416,207.421,207.265,138712.0,28682240.0,1705952760,,,,,,,,,,,25.717843670020216,1.535252807841104,0.6016428571428533,22.44797660936239,64.66114793802465,0,0,99898.807,,,207.265:241.0;,159.05999999999918,
295,2024-01-25 03:26:00,208.45,208.48,208.565,208.36,273320.0,56784896.0,1706124360,,,,,,,,,1.0,,5.283138351134664,0.5229634866204407,0.4951428571428603,40.60878172276272,-75.2259146562834,1,0,50079.257000000005,208.45:239.0;,208.45:239.0;,,0.0,208.45;
300,2024-01-25 03:31:00,208.42,208.84,208.84,208.42,209368.0,43551744.0,1706124660,,,,,,,,,,,18.888947555392637,-2.393602265039874,0.5035000000000025,37.70355006392754,22.590932697585217,0,0,99891.637,,,208.42:239.0;,-7.170000000000272,
351,2024-01-25 04:22:00,207.62,207.7,207.7,207.57,208040.0,43083776.0,1706127720,,,,,,,1.0,,,,8.018710454979754,-5.020257581165694,0.5599285714285733,35.35461178903085,-77.2348019515995,1,0,50062.837,207.62:240.0;,207.62:240.0;,,0.0,207.62;
354,2024-01-25 04:25:00,207.351,207.628,207.628,207.351,396664.0,82196480.0,1706127900,,,,,,,,,,,-0.7027938543119632,-6.447317819615535,0.5420000000000036,35.35461178903085,-77.98831246693598,0,0,99827.07699999999,,,207.351:240.0;,-64.56000000000131,
8,2024-01-25 22:39:00,187.806,188.45,188.45,187.35,1444754.0,270984192.0,1706193540,1.0,,,,,,,,1.0,,10.94816592568536,9.451828232588426,3.0457142857142827,37.15433533884339,-76.17956923878928,1,0,50058.48699999999,187.806:265.0;,187.806:265.0;,,0.0,187.806;
16,2024-01-25 22:47:00,188.261,188.46,188.46,187.81,1207320.0,226813440.0,1706194020,,,,,,,,,,,-1.012610947659013,5.758219151881271,3.267357142857138,37.15433533884339,-73.06744161042522,0,0,99947.65199999999,,,188.261:265.0;,120.57499999999578,
150,2024-01-26 01:01:00,184.284,184.167,184.359,184.167,494600.0,90732544.0,1706202060,,,,,,,1.0,,,,-2.303473724637257,-8.479505976966252,0.6245714285714244,15.37458149013132,-78.09378754011446,1,0,50190.97199999999,184.284:270.0;,184.284:270.0;,,0.0,184.284;
152,2024-01-26 01:03:00,183.92,183.685,183.92,183.685,549864.0,100311040.0,1706202180,,,,,,,,,,,-7.608334309839378,-8.479505976966252,0.6245714285714244,15.37458149013132,-78.70726269569535,0,0,99849.37199999997,,,183.92:270.0;,-98.28000000000117,
154,2024-01-26 01:05:00,183.979,183.89,183.979,183.835,390592.0,71442432.0,1706202300,,,,,1.0,,,,,,-7.776679623251034,-8.400094691141101,0.6215714285714264,15.37458149013132,-76.14074750775475,1,0,49991.06299999997,183.979:271.0;,183.979:271.0;,,0.0,183.979;
156,2024-01-26 01:07:00,183.63,183.33,183.63,183.174,671336.0,122548224.0,1706202420,,,,,,,,,,,-10.164783776797371,-8.400094691141101,0.6215714285714264,15.37458149013132,-75.42702347393994,0,0,99754.79299999998,,,183.63:271.0;,-94.57900000000487,
184,2024-01-26 01:35:00,180.17,180.5,180.5,180.08,991008.0,178421760.0,1706204100,,,1.0,,,,,,,,-7.396679167873186,-7.863169306679827,0.7435000000000015,11.827452625018084,-77.32484947920112,1,0,49847.70299999998,180.17:277.0;,180.17:277.0;,,0.0,180.17;
192,2024-01-26 01:43:00,180.86,180.682,180.958,180.682,334584.0,60241920.0,1706204580,,,,,,,,,,,10.760214042439586,-7.050524361053199,0.7496428571428575,11.827452625018084,79.2281381608804,0,0,99945.92299999998,,,180.86:277.0;,191.13000000000724,
367,2024-02-01 04:38:00,188.696,188.17,188.696,188.084,335112.0,63020032.0,1706733480,,,,,,,,,1.0,,-13.101289305793143,4.606450437626705,1.1629999999999987,77.06759379709881,-76.12798887965178,1,0,99945.92299999998,,,,0.0,
32,2024-02-01 23:03:00,187.405,187.2,187.405,187.12,397563.0,74469120.0,1706799780,1.0,,,,,,,,,,37.27220437913529,-2.444976339788923,1.219,48.99569483740476,-40.66146184753058,1,0,50096.19299999998,187.405:266.0;,187.405:266.0;,,0.0,187.405;
43,2024-02-01 23:14:00,187.77,187.46,187.795,187.46,243290.0,45827328.0,1706800440,,,,,,,,,,,31.39591644180936,-1.6470245518488014,1.2316428571428588,48.99569483740476,16.95864815224888,0,0,100043.01299999998,,,187.77:266.0;,97.09000000000242,
74,2024-02-01 23:45:00,185.95,185.66,185.95,185.651,389922.0,71648256.0,1706802300,,,,,,,,,1.0,,-6.585096021782373,-12.320193657909613,0.8924285714285735,45.40719299241857,-77.88149665190583,1,0,50208.41299999998,185.95:268.0;,185.95:268.0;,,0.0,185.95;
75,2024-02-01 23:46:00,185.59,185.838,185.94,185.59,426152.0,78392320.0,1706802360,,,,,,,,,,,-5.769818004076033,-12.320193657909613,0.8924285714285735,45.40719299241857,-78.28408072446724,0,0,99946.53299999998,,,185.59:268.0;,-96.47999999999604,
82,2024-02-01 23:53:00,185.25,185.135,185.34,185.135,211596.0,39114240.0,1706802780,,,,,,,1.0,,,,-5.891182832932259,-14.283202156299764,0.8322142857142885,45.40719299241857,-76.2490608203625,1,0,50114.28299999998,185.25:269.0;,185.25:269.0;,,0.0,185.25;
84,2024-02-01 23:55:00,184.83,184.579,184.83,184.579,441030.0,81382912.0,1706802900,,,,,,,,,,,-6.955163884398633,-15.929719771980515,0.8220000000000007,45.40719299241857,-77.96974534420053,0,0,99833.55299999999,,,184.83:269.0;,-112.97999999999664,
75,2024-02-05 23:46:00,175.552,175.29,175.552,175.2,567204.0,98902528.0,1707147960,,,1.0,,,,,,,,-0.5136196056904776,-12.33537832481663,1.0995714285714269,23.117603547576508,-68.48550977574081,1,0,49976.78499999999,175.552:284.0;,175.552:284.0;,,0.0,175.552;
83,2024-02-05 23:54:00,175.64,175.375,175.645,175.375,478708.0,83169280.0,1707148440,,,,,,,,,,,9.43207518916317,-14.086065099207405,1.041357142857141,23.117603547576508,80.67977781306321,0,0,99858.54499999998,,,175.64:284.0;,24.991999999998256,
92,2024-02-13 00:03:00,190.802,190.9,190.955,190.802,335364.0,63807488.0,1707753780,,,,,,,,,1.0,,-2.521235966359498,7.330064963190964,0.9507857142857148,81.48777515997287,-76.26647337470413,1,0,50059.22299999998,190.802:261.0;,190.802:261.0;,,0.0,190.802;
103,2024-02-13 00:14:00,191.11,191.082,191.34,191.082,232740.0,43992064.0,1707754440,,,,,,,,,,,21.610051483350706,1.6781083294964674,0.8542857142857149,81.48777515997287,31.5835717753942,0,0,99938.93299999999,,,191.11:261.0;,80.38800000000552,
164,2024-02-13 01:15:00,189.26,189.53,189.57,189.26,317364.0,59977728.0,1707758100,,,,,1.0,,1.0,,,,-7.713015655576029,-11.260236527755753,0.5961428571428614,74.8864510033662,-72.82662004039548,1,0,50163.55299999999,189.26:263.0;,189.26:263.0;,,0.0,189.26;
168,2024-02-13 01:19:00,189.04,189.05,189.05,188.875,366688.0,68933632.0,1707758340,,,,,,,,,,,-7.480413203454091,-11.260236527755753,0.5961428571428614,74.8864510033662,-62.94020219560523,0,0,99881.07299999999,,,189.04:263.0;,-57.8599999999997,
285,2024-02-14 03:16:00,182.556,182.75,182.75,182.556,297480.0,54285312.0,1707851760,,,,,,,,,1.0,,-19.281004640732554,6.684282846777009,0.3658571428571459,-9.10956636975041,-78.02326739471467,1,0,50043.28499999999,182.556:273.0;,182.556:273.0;,,0.0,182.556;
291,2024-02-14 03:22:00,182.67,182.659,182.77,182.659,99728.0,18206720.0,1707852120,,,,,,,,,,,-9.651649401914412,4.784380908524653,0.3520000000000018,-9.10956636975041,-71.44283738363971,0,0,99912.19499999998,,,182.67:273.0;,31.12199999999342,
326,2024-02-14 03:57:00,182.34,182.461,182.533,182.34,312544.0,57003008.0,1707854220,,,,,,,1.0,,,,11.809900821076036,3.1832825083100573,0.3532857142857141,-12.35465969169367,-77.38391856501784,1,0,50133.37499999998,182.34:273.0;,182.34:273.0;,,0.0,182.34;
328,2024-02-14 03:59:00,182.32,182.461,182.465,182.32,156184.0,28467200.0,1707854340,,,,,,,,,,,9.037139749783464,3.1832825083100573,0.3532857142857141,-12.35465969169367,-74.73361151950364,0,0,99906.73499999999,,,182.32:273.0;,-5.460000000002793,
156,2024-02-21 01:07:00,190.43,190.25,190.43,190.25,240440.0,45788160.0,1708448820,,,,,1.0,,,,,,-11.169277188855006,-3.363453322202595,0.5710714285714248,44.77926988407626,-77.18783537829341,1,0,50014.07499999998,190.43:262.0;,190.43:262.0;,,0.0,190.43;
159,2024-02-21 01:10:00,190.2,190.11,190.2,190.09,222400.0,42304512.0,1708449000,,,,,,,,,,,-14.129458132218566,-4.950456598031373,0.5712142857142827,44.77926988407626,-78.39131557518803,0,0,99846.47499999998,,,190.2:262.0;,-60.260000000004766,
184,2024-02-24 01:35:00,193.64,193.68,193.78,193.64,160608.0,31107072.0,1708709700,,,,,1.0,,,,,,0.6534095173514913,1.653544967307667,0.5010714285714296,60.8208070956761,-75.0319998142104,1,0,50080.99499999998,193.64:257.0;,193.64:257.0;,,0.0,193.64;
186,2024-02-24 01:37:00,193.52,193.652,193.652,193.52,116052.0,22444032.0,1708709820,,,,,,,,,,,-1.5466507172734223,1.653544967307667,0.5010714285714296,60.8208070956761,-73.67785413739772,0,0,99815.63499999998,,,193.52:257.0;,-30.839999999993864,
276,2024-02-24 03:07:00,192.73,192.709,192.755,192.575,189424.0,36480000.0,1708715220,,,,,,,1.0,,,,2.715899897380936,11.77726329272746,0.4912142857142823,58.11239970641,-75.99306535625442,1,0,49898.56499999998,192.73:259.0;,192.73:259.0;,,0.0,192.73;
281,2024-02-24 03:12:00,192.33,192.52,192.52,192.33,293716.0,56581120.0,1708715520,,,,,,,,,,,-8.020672704141504,9.238063897056932,0.4767857142857131,58.11239970641,-75.45780674367393,0,0,99712.03499999997,,,192.33:259.0;,-103.59999999999411,
8,2024-02-27 22:39:00,203.14,202.9,203.372,202.83,620017.0,125965056.0,1709044740,1.0,,,,,,,,,,81.5457582882901,16.403701581851166,0.96992857142857,91.02085273632744,9.666695962575972,1,0,49942.73499999998,203.14:245.0;,203.14:245.0;,,0.0,203.14;
11,2024-02-27 22:42:00,202.15,201.68,202.254,201.68,862889.0,174378496.0,1709044920,,,,,,,,,,,71.43795116416834,23.55497440070046,1.0191428571428551,91.02085273632744,-12.212117930567466,0,0,99469.48499999999,,,202.15:245.0;,-242.54999999999526,
3,2024-02-29 22:34:00,203.921,203.729,204.429,203.729,496569.0,101281152.0,1709217240,1.0,,,,,,,,,,82.87780816233214,3.2191275638282235,0.4839285714285677,85.95373091784793,63.029127355106304,1,0,49916.681999999986,203.921:243.0;,203.921:243.0;,,0.0,203.921;
6,2024-02-29 22:37:00,203.14,203.192,203.43,203.14,551693.0,112214656.0,1709217420,,,,,,,,,,,79.7664722893703,13.24999782288984,0.734499999999997,85.95373091784793,53.38642975532206,0,0,99279.70199999999,,,203.14:243.0;,-189.78300000000144,
164,2024-03-05 01:15:00,189.102,189.21,189.354,189.102,296088.0,55903232.0,1709572500,,,1.0,,,,,,,,14.55540068593887,-21.10812543847851,0.6104999999999998,18.339468902617117,-73.65514608424772,1,0,49734.97799999999,189.102:262.0;,189.102:262.0;,,0.0,189.102;
169,2024-03-05 01:20:00,189.37,189.36,189.392,189.29,252096.0,47576064.0,1709572800,,,,,,,,,,,25.70868660285499,-20.397067340198703,0.6014285714285705,18.339468902617117,64.11114084166212,0,0,99349.91799999999,,,189.37:262.0;,70.21600000000018,
205,2024-03-05 01:56:00,187.162,187.05,187.18,187.05,355024.0,66313216.0,1709574960,,,,,1.0,,,,,,-4.050094080869254,-17.06561152659224,0.6419285714285691,12.50209183067561,-71.23038354738301,1,0,49751.98799999999,187.162:265.0;,187.162:265.0;,,0.0,187.162;
214,2024-03-05 02:05:00,187.54,187.525,187.66,187.525,255976.0,47934464.0,1709575500,,,,,,,,,,,22.55573454784058,-14.695506028167852,0.6460714285714276,7.860615221914131,79.46708698907098,0,0,99450.08799999999,,,187.54:265.0;,100.16999999999626,
103,2024-03-06 00:14:00,177.761,177.95,177.95,177.7,312640.0,55067648.0,1709655240,,,,,,,1.0,,,,11.854315367938645,-2.458770440058004,0.946785714285716,-13.723362030426657,-75.8893322407415,1,0,49854.76899999999,177.761:279.0;,177.761:279.0;,,0.0,177.761;
118,2024-03-06 00:29:00,178.36,178.21,178.37,178.21,221620.0,39333888.0,1709656140,,,,,,,,,,,34.78281247843808,-4.91592302565676,0.7061428571428569,-13.723362030426657,77.71440398287574,0,0,99617.209,,,178.36:279.0;,167.121000000005,
11,2024-03-12 21:42:00,173.567,173.415,173.638,173.27,502893.0,87215360.0,1710250920,1.0,,,,,,,,1.0,,8.667068409837952,9.140415178174903,1.0747857142857182,62.66458653144109,-77.77601386554483,1,0,49977.047,173.567:286.0;,173.567:286.0;,,0.0,173.567;
13,2024-03-12 21:44:00,173.075,172.98,173.075,172.87,727866.0,126016000.0,1710251040,,,,,,,,,,,4.3904343117425455,9.140415178174903,1.0747857142857182,62.66458653144109,-77.8849914644474,0,0,99476.497,,,173.075:286.0;,-140.71200000000533,
25,2024-03-12 21:56:00,173.3,173.54,173.67,173.08,463158.0,80368128.0,1710251760,,,,,1.0,,,,,,2.895505484180987,1.2636606069245315,1.2447857142857155,62.66458653144109,-53.0329786862697,1,0,49739.397,173.3:287.0;,173.3:287.0;,,0.0,173.3;
30,2024-03-12 22:01:00,173.025,173.471,173.471,173.025,477218.0,82747136.0,1710252060,,,,,,,,,,,6.855242732505658,-0.523081240624748,1.2720714285714283,54.52346565747466,31.50790864057091,0,0,99397.572,,,173.025:287.0;,-78.92500000000163,
42,2024-03-13 22:13:00,172.735,172.63,172.75,172.63,486674.0,83944448.0,1710339180,,,,,,,,,1.0,,0.726981866643321,6.970219470423217,1.2207857142857108,41.96715754605222,-75.23495015685614,1,0,49822.62699999999,172.735:287.0;,172.735:287.0;,,0.0,172.735;
47,2024-03-13 22:18:00,172.23,172.68,172.68,172.23,611430.0,105330176.0,1710339480,,,,,,,,,,,3.530442278921477,1.6079579826209738,1.2596428571428544,41.96715754605222,-71.20221999339999,0,0,99252.63699999999,,,172.23:287.0;,-144.93500000000685,
68,2024-03-13 22:39:00,171.145,171.18,171.355,171.13,429912.0,72971264.0,1710340740,,,,,,,1.0,,,,7.225910212023678,-11.20971450342074,1.3945000000000018,33.94587391717273,-76.04810278687088,1,0,49620.586999999985,171.145:290.0;,171.145:290.0;,,0.0,171.145;
86,2024-03-13 22:57:00,171.215,171.02,171.215,171.02,353448.0,59837952.0,1710341820,,,,,,,,,,,27.35047308517305,-18.30483703160833,0.8832142857142904,33.94587391717273,78.98069723394087,0,0,99272.93699999998,,,171.215:290.0;,20.299999999998022,
122,2024-03-14 23:33:00,163.256,163.257,163.3,163.18,395904.0,64591872.0,1710430380,,,,,1.0,,,,,,-3.846392568529275,1.2578122987063622,0.5629285714285714,-15.454091918340168,-68.51821717822027,1,0,49643.112999999976,163.256:304.0;,163.256:304.0;,,0.0,163.256;
126,2024-03-14 23:37:00,163.25,163.328,163.41,163.127,443980.0,72450048.0,1710430620,,,,,,,,,,,5.617528556826009,1.964616124213702,0.5489285714285715,-15.454091918340168,70.99382239430322,0,0,99271.11299999998,,,163.25:304.0;,-1.8240000000000691,
149,2024-03-15 00:00:00,162.959,162.8,162.99,162.79,235948.0,38402048.0,1710432000,,,1.0,,,,,,,,7.111854558325984,-0.1609078862711648,0.526142857142854,-16.786476741120488,-74.31099997062054,1,0,49731.57699999998,162.959:304.0;,162.959:304.0;,,0.0,162.959;
150,2024-03-15 00:01:00,162.74,163.08,163.08,162.69,400760.0,65267712.0,1710432060,,,,,,,,,,,8.192417935127231,-0.1609078862711648,0.526142857142854,-16.786476741120488,-75.39349259173602,0,0,99204.53699999998,,,162.74:304.0;,-66.5759999999982,
211,2024-03-16 01:02:00,161.05,161.12,161.12,160.96,139744.0,22482944.0,1710522120,,,,,,,1.0,,,,9.958850251340206,12.644144075856415,0.3690714285714226,6.401696109390583,-60.3007079207234,1,0,49762.186999999976,161.05:307.0;,161.05:307.0;,,0.0,161.05;
223,2024-03-16 01:14:00,161.56,161.62,161.62,161.51,121384.0,19618816.0,1710522840,,,,,,,,,,,80.97077736349591,9.39067722961596,0.3822142857142795,6.401696109390583,81.73413484879464,0,0,99361.10699999997,,,161.56:307.0;,156.5699999999972,
214,2024-03-22 01:05:00,173.159,173.44,173.44,173.159,219592.0,38013952.0,1711040700,,,,,,,1.0,,,,11.07210848494158,-14.017591821657504,0.4025714285714262,76.90431136836997,-68.53695838886323,1,0,49837.63299999998,173.159:286.0;,173.159:286.0;,,0.0,173.159;
221,2024-03-22 01:12:00,173.52,173.538,173.59,173.52,57944.0,10033664.0,1711041120,,,,,,,,,,,26.249036584569662,-13.633056897517577,0.3879999999999991,76.90431136836997,59.37661906109295,0,0,99464.35299999997,,,173.52:286.0;,103.24600000000527,
365,2024-03-27 03:36:00,178.145,178.192,178.192,178.125,198752.0,35397632.0,1711481760,,,,,,,1.0,,,,-6.591293528311866,-19.70797050937479,0.3876428571428586,93.60103392490572,-76.70419472861443,1,0,99464.35299999997,,,,0.0,
5,2024-03-27 21:36:00,178.81,178.666,179.07,178.666,582309.0,104214720.0,1711546560,1.0,,,,,,,,,,29.061951271933005,-12.299901097958298,0.7109285714285696,83.03646918742025,81.10305753135327,1,0,49755.17299999997,178.81:278.0;,178.81:278.0;,,0.0,178.81;
7,2024-03-27 21:38:00,178.225,178.266,178.266,177.859,707457.0,125993856.0,1711546680,,,,,,,,,,,27.055253147498867,-12.299901097958298,0.7109285714285696,83.03646918742025,71.39966653156516,0,0,99301.72299999997,,,178.225:278.0;,-162.6300000000022,
17,2024-03-27 21:48:00,176.85,177.416,177.416,176.85,444880.0,78824704.0,1711547280,,,,,,,1.0,,1.0,,8.804818597680068,-11.7710687004759,0.8432142857142821,83.03646918742025,-75.03341944858849,1,0,49606.87299999997,176.85:281.0;,176.85:281.0;,,0.0,176.85;
19,2024-03-27 21:50:00,177.658,177.94,177.95,177.658,490419.0,87233536.0,1711547400,,,,,1.0,,,,,,12.09337457767996,-8.057456205369505,0.9167857142857108,83.03646918742025,-55.23888449224034,1,0,40.29099999997561,176.85:281.0;177.658:279.0;,177.658:279.0;,,0.0,177.658;177.658;
23,2024-03-27 21:54:00,177.431,177.262,177.431,177.035,540065.0,95702016.0,1711547640,,,,,,,,,,,15.465375590188785,-8.057456205369505,0.9167857142857108,83.03646918742025,53.77041825918641,0,0,99401.65099999998,,,177.431:281.0;177.431:279.0;,99.9280000000117,
5,2024-04-01 21:36:00,175.868,175.95,175.95,175.67,493668.0,86796800.0,1711978560,1.0,,,,,,,,,,41.5028354311328,5.909271001408229,0.5699999999999932,32.760319650051514,38.32877983782648,1,0,49806.874999999985,175.868:282.0;,175.868:282.0;,,0.0,175.868;
7,2024-04-01 21:38:00,175.64,175.465,175.855,175.465,340850.0,59864320.0,1711978680,,,,,,,,,,,41.35869709781126,5.909271001408229,0.5699999999999932,32.760319650051514,71.64387404872262,0,0,99337.35499999998,,,175.64:282.0;,-64.29600000000244,
44,2024-04-01 22:15:00,173.47,173.242,173.47,173.242,302616.0,52527360.0,1711980900,,,,,,,,,1.0,,1.388134901246815,6.642591369463958,0.986857142857139,28.849296309096104,-76.61574932060424,1,0,49724.93499999998,173.47:286.0;,173.47:286.0;,,0.0,173.47;
46,2024-04-01 22:17:00,173.028,172.998,173.035,172.96,445860.0,77232384.0,1711981020,,,,,,,,,,,-2.225712873999228,6.642591369463958,0.986857142857139,28.849296309096104,-78.07477591533399,0,0,99210.94299999997,,,173.028:286.0;,-126.41200000000208,
52,2024-04-01 22:23:00,172.548,172.778,172.778,172.548,323506.0,55860736.0,1711981380,,,,,,,1.0,,,,-5.095448567824903,4.064961750115216,1.0252857142857092,28.849296309096104,-77.46183636368661,1,0,49517.11899999997,172.548:288.0;,172.548:288.0;,,0.0,172.548;
56,2024-04-01 22:27:00,172.167,172.19,172.28,172.12,399606.0,68848128.0,1711981620,,,,,,,,,,,-6.768176168906383,1.899506816607385,1.038499999999995,28.849296309096104,-77.19452467659357,0,0,99101.21499999997,,,172.167:288.0;,-109.72800000000007,
336,2024-04-05 03:07:00,171.73,171.486,171.73,171.486,273520.0,46772224.0,1712257620,,,,,,,,,1.0,,3.2049633015361216,15.16177566286322,0.6447142857142845,91.07057697940384,-62.47442468794874,1,0,49642.97499999997,171.73:288.0;,171.73:288.0;,,0.0,171.73;
338,2024-04-05 03:09:00,171.356,171.6,171.6,171.356,200808.0,34347008.0,1712257740,,,,,,,,,,,2.8814380239368447,15.16177566286322,0.6447142857142845,91.07057697940384,-70.4885190756704,0,0,98993.50299999997,,,171.356:288.0;,-107.71199999999862,
11,2024-04-05 21:42:00,167.815,167.837,167.837,167.51,514894.0,86326912.0,1712324520,1.0,,,,,,,,,,11.454457479392246,-25.207438910634565,0.9857142857142926,83.8739558235643,-75.56189669767804,1,0,49655.89299999997,167.815:294.0;,167.815:294.0;,,0.0,167.815;
15,2024-04-05 21:46:00,167.72,167.41,167.72,167.41,431375.0,72258304.0,1712324760,,,,,,,,,,,4.43034272496336,-26.139873935378446,0.9967857142857192,83.8739558235643,-63.04135789803644,0,0,98965.57299999997,,,167.72:294.0;,-27.929999999999666,
99,2024-04-05 23:10:00,166.814,166.4,166.814,166.4,729296.0,121308160.0,1712329800,,,,,1.0,,,,1.0,,26.320787406443216,10.768029781029853,1.0822142857142905,75.6645584385504,-71.8184242568003,1,0,49588.62899999998,166.814:296.0;,166.814:296.0;,,0.0,166.814;
100,2024-04-05 23:11:00,166.345,166.43,166.43,166.15,787796.0,130456576.0,1712329860,,,,,,,,,,,21.18620419856805,10.768029781029853,1.0822142857142905,75.6645584385504,-73.72573363974898,0,0,98826.74899999998,,,166.345:296.0;,-138.82399999999825,
105,2024-04-05 23:16:00,163.42,162.85,163.54,162.85,1048832.0,170740224.0,1712330160,,,,,,,1.0,,,,-2.2325251352740736,8.105037072985496,1.3065000000000058,75.6645584385504,-77.08803766218449,1,0,49473.908999999985,163.42:302.0;,163.42:302.0;,,0.0,163.42;
106,2024-04-05 23:17:00,162.82,163.23,163.35,162.82,836612.0,136061440.0,1712330220,,,,,,,,,,,-4.80351964443777,8.105037072985496,1.3065000000000058,75.6645584385504,-77.71118682689452,0,0,98645.54899999998,,,162.82:302.0;,-181.19999999999828,
107,2024-04-05 23:18:00,163.32,163.02,164.18,163.02,1064100.0,173620736.0,1712330280,,,1.0,,,,,,,,-7.512435374120983,8.105037072985496,1.3065000000000058,75.6645584385504,-77.60715647958787,1,0,49159.588999999985,163.32:303.0;,163.32:303.0;,,0.0,163.32;
110,2024-04-05 23:21:00,163.605,164.76,164.76,163.605,972092.0,158981632.0,1712330460,,,,,,,,,,,-4.909117836213483,6.241170455618331,1.327214285714293,75.6645584385504,-74.94436981233146,0,0,98731.90399999998,,,163.605:303.0;,86.35499999999897,
74,2024-04-12 22:45:00,171.76,171.778,171.79,171.7,108220.0,18753536.0,1712933100,1.0,,,,,,,,,,4.67897780445854,-5.677223331959709,0.7852142857142853,42.07787701334601,-73.31430416094666,1,0,49436.783999999985,171.76:287.0;,171.76:287.0;,,0.0,171.76;
79,2024-04-12 22:50:00,171.45,171.39,171.536,171.39,134472.0,23274496.0,1712933400,,,,,,,,,,,1.071597189495172,-10.324039320963948,0.7220714285714293,42.07787701334601,-70.92112121867949,0,0,98642.93399999998,,,171.45:287.0;,-88.97000000000065,
201,2024-04-13 00:52:00,170.854,170.94,171.009,170.852,144460.0,24653824.0,1712940720,,,,,1.0,,,,,,-4.131100079940449,-13.657918000610806,0.3293571428571401,32.8897426601242,-73.75246059496068,1,0,49436.981999999975,170.854:288.0;,170.854:288.0;,,0.0,170.854;
225,2024-04-13 01:16:00,171.44,171.676,171.757,171.44,143240.0,24567808.0,1712942160,,,,,,,,,,,103.83933225959356,-6.091668427320826,0.3331428571428562,29.797027740919876,75.0704920871397,0,0,98811.70199999998,,,171.44:288.0;,168.76799999999548,
27,2024-04-15 21:58:00,165.33,165.51,165.51,165.33,319738.0,52951040.0,1713189480,,,,,1.0,,,,,,-16.391281620830664,12.608290073253208,0.96442857142857,25.217902856536767,-77.36403468218222,1,0,49543.36199999997,165.33:298.0;,165.33:298.0;,,0.0,165.33;
35,2024-04-15 22:06:00,165.44,165.86,165.95,165.44,511122.0,84767744.0,1713189960,,,,,,,,,,,-6.843949914291361,7.676571389750684,1.0415714285714262,19.55155864810571,-59.01374486370303,0,0,98844.48199999997,,,165.44:298.0;,32.779999999995596,
190,2024-04-16 00:41:00,164.45,164.46,164.52,164.45,204592.0,33559552.0,1713199260,,,,,1.0,,,,,,-18.562875807899395,7.283704177864259,0.444357142857139,4.711619043835299,-77.27133027720198,1,0,49509.481999999975,164.45:300.0;,164.45:300.0;,,0.0,164.45;
193,2024-04-16 00:44:00,164.24,164.11,164.28,164.098,196412.0,32183296.0,1713199440,,,,,,,,,,,-16.504420609322654,7.283704177864259,0.444357142857139,4.711619043835299,-76.03810446579412,0,0,98781.48199999997,,,164.24:300.0;,-62.99999999999386,
9,2024-04-16 21:40:00,154.18,154.46,154.46,154.06,958813.0,147909632.0,1713274800,1.0,,,,,,,,1.0,,-3.1470392331607684,7.797616245159453,1.21914285714286,-3.4658293389289128,-77.04389152642774,1,0,49443.88199999997,154.18:320.0;,154.18:320.0;,,0.0,154.18;
19,2024-04-16 21:50:00,154.98,155.025,155.233,154.98,377686.0,58660352.0,1713275400,,,,,,,,,,,-0.8675762948522134,9.094656858226127,1.3198571428571455,-3.4658293389289128,-50.63176418338311,0,0,99037.48199999996,,,154.98:320.0;,255.99999999999454,
320,2024-04-20 02:51:00,147.027,146.923,147.065,146.885,155448.0,22732800.0,1713552660,,,,,1.0,,1.0,,,,-0.8083171881541276,-7.000507284629606,0.3687142857142902,23.2669228066118,-64.6580199791077,1,0,49636.40999999997,147.027:336.0;,147.027:336.0;,,0.0,147.027;
327,2024-04-20 02:58:00,147.06,147.09,147.17,147.05,140432.0,20575232.0,1713553080,,,,,,,,,,,18.295568652116643,-7.454711865644114,0.3915714285714325,23.2669228066118,74.79655490030666,0,0,99048.56999999998,,,147.06:336.0;,11.088000000005195,
5,2024-04-22 21:36:00,139.34,140.24,140.24,139.075,1161448.0,162043136.0,1713792960,1.0,,,,,,,,,,24.26943377267604,-8.745864203804473,0.9388571428571452,21.359918897880767,-71.3903637546016,1,0,49582.86999999997,139.34:355.0;,139.34:355.0;,,0.0,139.34;
10,2024-04-22 21:41:00,141.052,141.26,141.49,141.04,675724.0,95589120.0,1713793260,,1.0,,,,,,,,,23.899115972890684,-5.947176888471411,1.114214285714287,21.359918897880767,26.14460340764433,0,1,74690.12599999997,139.34:177.0;,,141.052:178;,304.73599999999806,141.39;
13,2024-04-22 21:44:00,141.82,142.15,142.26,141.675,461156.0,65609984.0,1713793440,,,,,,,,,,1.0,29.051234442380355,-5.947176888471411,1.114214285714287,21.359918897880767,61.75877014019243,0,1,99792.26599999997,,,141.82:177.0;,438.9599999999982,141.89;
86,2024-04-22 22:57:00,140.31,140.451,140.455,140.31,236804.0,32906752.0,1713797820,,,,,,,,,1.0,,-8.894242989649264,17.2240505549968,0.7935714285714275,21.0586362741166,-65.02951434004868,1,0,50403.14599999997,140.31:352.0;,140.31:352.0;,,0.0,140.31;
91,2024-04-22 23:02:00,140.117,140.24,140.24,140.117,386248.0,53720064.0,1713798120,,,,,,,,,,,-6.897925882848828,15.652289937686,0.7514285714285701,19.108866494942376,-76.50643567212083,0,0,99724.32999999996,,,140.117:352.0;,-67.93600000000424,
6,2024-04-24 21:37:00,161.12,159.8,161.12,159.745,1432398.0,229675520.0,1713965820,1.0,,,,,,,,1.0,,80.42180953245801,-0.0769351510139415,3.1790714285714268,51.21790174368749,83.045038554366,1,0,49938.249999999956,161.12:309.0;,161.12:309.0;,,0.0,161.12;
7,2024-04-24 21:38:00,159.38,158.611,159.38,158.611,1588248.0,252756992.0,1713965880,,,,,,,,,,,82.35556863946546,-0.0769351510139415,3.1790714285714268,51.21790174368749,82.07632029615037,0,0,99186.66999999995,,,159.38:309.0;,-537.6600000000028,
306,2024-04-27 02:37:00,167.76,167.63,167.804,167.63,240312.0,40226816.0,1714156620,,,,,,,,,1.0,,2.927166607075101,8.276822436469587,0.4555714285714337,97.5905980276298,-71.71484748402743,1,0,49697.46999999996,167.76:295.0;,167.76:295.0;,,0.0,167.76;
308,2024-04-27 02:39:00,167.569,167.511,167.569,167.42,337288.0,56386560.0,1714156740,,,,,,,,,,,2.997810694353088,8.276822436469587,0.4555714285714337,97.5905980276298,-66.6449423665324,0,0,99130.32499999995,,,167.569:295.0;,-56.34500000000074,
320,2024-04-27 02:51:00,166.749,166.866,166.88,166.749,246720.0,41065472.0,1714157460,,,,,,,1.0,,,,7.648296488734307,-4.87651429085868,0.5104285714285746,97.5905980276298,-20.630806371765317,1,0,49605.87199999995,166.749:297.0;,166.749:297.0;,,0.0,166.749;
322,2024-04-27 02:53:00,166.525,166.644,166.65,166.525,188720.0,31374336.0,1714157580,,,,,,,,,,,8.76864754760365,-4.87651429085868,0.5104285714285746,97.5905980276298,67.93808389451814,0,0,99063.79699999996,,,166.525:297.0;,-66.5279999999969,
44,2024-04-30 22:15:00,187.23,187.15,187.23,187.07,239272.0,44757504.0,1714486500,1.0,,,,,,,,,,-2.1802508229639272,-1.249170609733227,2.115999999999997,86.07967629622777,-74.3619123363595,1,0,49635.07699999997,187.23:264.0;,187.23:264.0;,,0.0,187.23;
58,2024-04-30 22:29:00,186.78,187.22,187.22,186.78,366384.0,68165120.0,1714487340,,,,,,,,,,,-0.7747895533800673,-5.896312075617587,2.064071428571426,86.07967629622777,-74.49717653492566,0,0,98944.99699999997,,,186.78:264.0;,-118.799999999997,
62,2024-04-30 22:33:00,186.49,186.415,186.54,186.415,262088.0,48427520.0,1714487580,,,,,,,,,1.0,,-3.4604445471288727,-9.068453513278923,2.101785714285711,82.55279780581347,-75.907125532946,1,0,49525.14699999997,186.49:265.0;,186.49:265.0;,,0.0,186.49;
78,2024-04-30 22:49:00,187.16,187.31,187.31,187.08,204772.0,37851136.0,1714488540,,,,,,,,,,,44.60928441276506,-9.87301363249459,1.2319285714285644,82.55279780581347,49.936726055696646,0,0,99122.54699999996,,,187.16:265.0;,177.5499999999967,
100,2024-04-30 23:11:00,184.85,184.657,184.935,184.657,353712.0,64921600.0,1714489860,,,,,,,1.0,,,,1.0906135204902083,-15.114600704778155,1.0297142857142794,79.05548392337619,-73.2968165681443,1,0,49767.596999999965,184.85:267.0;,184.85:267.0;,,0.0,184.85;
102,2024-04-30 23:13:00,184.426,184.45,184.59,184.426,342060.0,62701568.0,1714489980,,,,,,,,,,,-2.209006147303981,-15.114600704778155,1.0297142857142794,79.05548392337619,-76.91405539737431,0,0,99009.33899999996,,,184.426:267.0;,-113.20800000000176,
307,2024-05-10 02:38:00,172.252,172.335,172.335,172.252,153476.0,26456064.0,1715279880,,,,,,,1.0,,,,15.200394323456663,8.460617348576719,0.2560714285714311,12.573984500693967,-65.36679761553985,1,0,49573.01499999996,172.252:287.0;,172.252:287.0;,,0.0,172.252;
310,2024-05-10 02:41:00,172.28,171.988,172.28,171.988,166732.0,28728320.0,1715280060,,,,,,,,,,,20.0699935960024,9.435626074537566,0.2560000000000023,12.573984500693967,64.48728836895403,0,0,99017.37499999997,,,172.28:287.0;,8.035999999997586,
7,2024-05-10 21:38:00,171.25,171.12,171.25,170.934,405579.0,69392704.0,1715348280,1.0,,,,,,,,,,28.385227064727744,6.308041783077925,0.5478571428571399,11.486226139052825,-75.04870943216308,1,0,49526.12499999997,171.25:289.0;,171.25:289.0;,,0.0,171.25;
9,2024-05-10 21:40:00,170.69,170.625,170.73,170.615,372996.0,63671360.0,1715348400,,,,,,,,,,,16.975613932461343,4.101579184561871,0.5932142857142841,11.486226139052825,-76.98077306243272,0,0,98855.53499999997,,,170.69:289.0;,-161.84000000000066,
61,2024-05-10 22:32:00,169.218,168.971,169.218,168.971,557656.0,94539264.0,1715351520,,,,,,,1.0,,1.0,,-0.8323113528765873,16.692718284318318,0.99857142857143,7.973048365248871,-77.86357785079826,1,0,49443.87899999998,169.218:292.0;,169.218:292.0;,,0.0,169.218;
76,2024-05-10 22:47:00,169.11,169.07,169.11,168.962,299884.0,50397696.0,1715352420,,,,,,,,,,,-2.422390341855923,10.95122205369882,0.7849285714285718,7.973048365248871,-72.78252198141371,0,0,98823.99899999998,,,169.11:292.0;,-31.535999999992896,
89,2024-05-10 23:00:00,168.18,168.21,168.21,168.06,303064.0,50447872.0,1715353200,,,,,1.0,,,,,,-4.227986011091176,4.869790029874672,0.7082857142857161,5.634555692878656,-73.45126219152014,1,0,49379.078999999976,168.18:294.0;,168.18:294.0;,,0.0,168.18;
101,2024-05-10 23:12:00,168.352,168.41,168.545,168.32,193100.0,32249856.0,1715353920,,,,,,,,,,,17.539969317023605,3.659141222991053,0.6527142857142881,5.634555692878656,70.4946425031872,0,0,98874.56699999998,,,168.352:294.0;,50.56799999999913,
6,2024-05-16 21:37:00,172.661,172.89,172.89,172.645,472290.0,81586112.0,1715866620,1.0,,,,,,,,,,11.07288169370898,14.138936403677974,0.517071428571433,41.25243202506289,-68.7983003779135,1,0,49493.52099999998,172.661:286.0;,172.661:286.0;,,0.0,172.661;
8,2024-05-16 21:39:00,172.21,171.973,172.21,171.973,336999.0,57973888.0,1715866740,,,,,,,,,,,10.385766405032273,14.138936403677974,0.517071428571433,41.25243202506289,-3.1698195755523173,0,0,98745.58099999998,,,172.21:286.0;,-128.9859999999981,
11,2024-05-20 21:42:00,174.84,174.59,174.84,174.57,504617.0,88115456.0,1716212520,1.0,,,,,,,,,,-16.81627740822543,2.660807116347541,0.599499999999998,55.71956677616501,-78.46915153293017,1,0,49440.70099999998,174.84:282.0;,174.84:282.0;,,0.0,174.84;
19,2024-05-20 21:50:00,174.819,174.59,174.89,174.57,493011.0,86118656.0,1716213000,,,,,,,,,,,-14.849318750935112,-1.8882163146880373,0.7169285714285719,55.71956677616501,-72.31367736666382,0,0,98739.65899999999,,,174.819:282.0;,-5.922000000004232,
201,2024-05-23 00:52:00,179.807,179.81,179.83,179.76,147636.0,26591232.0,1716396720,,,,,1.0,,,,,,-0.1293317330425196,-19.649985946464646,0.4003571428571401,88.4310237067761,-76.6864177993881,1,0,49472.54099999999,179.807:274.0;,179.807:274.0;,,0.0,179.807;
205,2024-05-23 00:56:00,179.665,179.754,179.83,179.649,180976.0,32585728.0,1716396960,,,,,,,,,1.0,,-9.969666886167232,-19.595621279737664,0.3932142857142833,88.4310237067761,-76.81021696389828,1,0,244.33099999999104,179.807:274.0;179.665:274.0;,179.665:274.0;,,0.0,179.807;179.665;
210,2024-05-23 01:01:00,179.6,179.88,179.88,179.6,259868.0,46803968.0,1716397260,,,,,,,,,,,-8.849008246928548,-19.418142948090377,0.3772142857142841,83.5619112141185,-70.82752600850289,0,0,98665.131,,,179.6:274.0;179.6:274.0;,-74.52799999999763,
249,2024-05-23 01:40:00,179.37,179.26,179.37,179.22,128676.0,23147520.0,1716399600,,,,,,,1.0,,,,18.237948271531,-11.230157292690954,0.365714285714282,79.08880176326662,-73.69535628727476,1,0,49338.380999999994,179.37:275.0;,179.37:275.0;,,0.0,179.37;
253,2024-05-23 01:44:00,179.089,179.211,179.211,179.089,168008.0,30013440.0,1716399840,,,,,,,,,,,12.433328829433805,-11.230157292690954,0.365714285714282,79.08880176326662,-72.5778360986155,0,0,98587.856,,,179.089:275.0;,-77.27500000000163,
123,2024-05-31 23:34:00,175.2,175.243,175.34,175.2,152146.0,26268672.0,1717169640,,,,,,,1.0,,,,13.882016638638788,-9.912832094737666,0.6650714285714291,59.09572840000516,-70.11238500648538,1,0,49356.656,175.2:281.0;,175.2:281.0;,,0.0,175.2;
129,2024-05-31 23:40:00,175.12,175.152,175.31,175.12,104512.0,17901568.0,1717170000,,,,,,,,,,,15.919399923538144,-13.313692146415647,0.6064999999999989,59.09572840000516,7.709663574834728,0,0,98565.376,,,175.12:281.0;,-22.479999999995528,
6,2024-06-05 21:37:00,172.88,172.465,172.96,172.465,749849.0,129584256.0,1717594620,1.0,,,,,,,,,,-3.2579971184820486,17.34209570545849,0.6614285714285708,19.816579172950064,-76.653686176722,1,0,49294.57600000001,172.88:285.0;,172.88:285.0;,,0.0,172.88;
8,2024-06-05 21:39:00,172.608,172.165,172.62,172.165,439418.0,75729408.0,1717594740,,,,,,,,,,,-5.17238292477774,17.34209570545849,0.6614285714285708,19.816579172950064,-78.12033989655518,0,0,98487.856,,,172.608:285.0;,-77.51999999999754,
13,2024-06-06 21:44:00,174.79,174.87,174.89,174.74,226074.0,39517056.0,1717681440,1.0,,,,,,,,,,52.22594126932208,18.15115630737968,0.5991428571428555,30.107945085365422,-62.46437113403082,1,0,49371.866,174.79:281.0;,174.79:281.0;,,0.0,174.79;
16,2024-06-06 21:47:00,174.585,174.85,174.96,174.585,212941.0,37213440.0,1717681620,,,,,,,,,,,40.18136496817347,17.52784862328538,0.619571428571427,30.107945085365422,-64.63021322248541,0,0,98430.251,,,174.585:281.0;,-57.60499999999553,
22,2024-06-06 21:53:00,173.275,173.32,173.32,173.25,307679.0,53301760.0,1717681980,,,,,,,,,1.0,,7.153888106633062,11.385850064029682,0.68592857142857,30.107945085365422,-77.05626434321039,1,0,49220.151000000005,173.275:284.0;,173.275:284.0;,,0.0,173.275;
25,2024-06-06 21:56:00,172.94,173.17,173.17,172.94,285840.0,49458048.0,1717682160,,,,,,,,,,,-3.4678134660126148,6.091594884501276,0.7402142857142836,30.107945085365422,-78.3400146245568,0,0,98335.111,,,172.94:284.0;,-95.14000000000226,
278,2024-06-08 02:09:00,176.292,176.13,176.292,176.13,153648.0,27021312.0,1717783740,,,,,,,,,1.0,,-9.682566079560956,-3.037324296265311,0.3608571428571423,93.23788448003631,-75.93810016190304,1,0,49325.935000000005,176.292:278.0;,176.292:278.0;,,0.0,176.292;
279,2024-06-08 02:10:00,176.14,176.22,176.25,176.13,154592.0,27202048.0,1717783800,,,,,,,,,,,-10.225930492106356,-7.130663798762555,0.3594285714285701,93.23788448003631,-77.14127944224282,0,0,98292.85500000001,,,176.14:278.0;,-42.256000000004235,
253,2024-06-11 01:44:00,174.47,174.54,174.54,174.47,62304.0,10835968.0,1718041440,,,,,,,,,1.0,,21.712370136446225,-2.6080559384241724,0.3682142857142878,55.7205094188882,-72.29940275854165,1,0,49266.78500000001,174.47:281.0;,174.47:281.0;,,0.0,174.47;
258,2024-06-11 01:49:00,174.37,174.495,174.53,174.37,62814.0,10926080.0,1718041740,,,,,,,,,,,18.07169864864838,-2.7069202374759698,0.3670714285714292,55.7205094188882,-72.00257830076171,0,0,98264.755,,,174.37:281.0;,-28.099999999998403,
274,2024-06-11 02:05:00,173.917,173.951,173.951,173.84,101244.0,17597952.0,1718042700,,,,,,,1.0,,,,-0.5010666725786521,-4.165393985091576,0.3490714285714266,49.05891047787063,-75.26948432114311,1,0,49220.16100000001,173.917:282.0;,173.917:282.0;,,0.0,173.917;
276,2024-06-11 02:07:00,173.76,173.8,173.8,173.7,236524.0,41064448.0,1718042820,,,,,,,,,,,-1.958219712245452,-4.165393985091576,0.3490714285714266,49.05891047787063,-74.95479288801624,0,0,98220.481,,,173.76:282.0;,-44.274000000003014,
27,2024-06-11 21:58:00,168.265,167.99,168.265,167.945,335239.0,56442368.0,1718114280,,,,,,,1.0,,,,-13.84801371432352,15.512272668774555,0.8370714285714322,11.320032512481616,-78.66131409586312,1,0,49255.366,168.265:291.0;,168.265:291.0;,,0.0,168.265;
28,2024-06-11 21:59:00,167.89,168.165,168.165,167.89,313510.0,52760576.0,1718114340,,,,,,,,,,,-13.03647580429968,15.512272668774555,0.8370714285714322,11.320032512481616,-78.68336141248027,0,0,98111.356,,,167.89:291.0;,-109.125,
31,2024-06-11 22:02:00,168.22,168.11,168.22,168.01,306053.0,51570688.0,1718114520,,,,,1.0,,,,,,-10.24575577961365,12.426730229536377,0.860357142857148,4.371095586808622,-75.13253429139392,1,0,49159.336,168.22:291.0;,168.22:291.0;,,0.0,168.22;
57,2024-06-11 22:28:00,169.4,169.34,169.482,169.34,175764.0,29807104.0,1718116080,,,,,,,,,,,59.99305721701761,16.703840657162104,0.9550714285714312,4.371095586808622,67.08478601272837,0,0,98454.736,,,169.4:291.0;,343.380000000002,
6,2024-06-14 21:37:00,183.52,183.22,183.83,183.22,564380.0,103592576.0,1718372220,1.0,,,,,,,,1.0,,42.3992082547512,6.553690862287766,1.081000000000003,60.530120720429295,76.43392121814455,1,0,49271.376000000004,183.52:268.0;,183.52:268.0;,,0.0,183.52;
8,2024-06-14 21:39:00,182.745,182.78,183.0,182.745,506497.0,92596352.0,1718372340,,,,,,,,,,,41.62103581687143,6.553690862287766,1.081000000000003,60.530120720429295,72.29508237081916,0,0,98247.03600000001,,,182.745:268.0;,-207.70000000000152,
38,2024-06-14 22:09:00,179.8,179.5,179.8,179.5,376068.0,67607296.0,1718374140,,,,,,,1.0,,,,0.2402537137373528,8.090284651864408,1.439857142857144,58.93687808941198,-77.30159211973292,1,0,49161.636000000006,179.8:273.0;,179.8:273.0;,,0.0,179.8;
41,2024-06-14 22:12:00,178.72,178.797,178.797,178.63,536590.0,95764480.0,1718374320,,,,,,,,,,,-4.462930022777883,4.155453199805422,1.5002142857142888,58.93687808941198,-78.53704647922295,0,0,97952.196,,,178.72:273.0;,-294.84000000000344,
77,2024-06-18 22:48:00,182.715,182.73,182.75,182.69,237830.0,43012096.0,1718722080,,,,,,,1.0,,1.0,,0.1824567609153469,-19.500751189730835,0.837214285714286,73.31716272030671,-77.34170628238256,1,0,48984.575999999994,182.715:268.0;,182.715:268.0;,,0.0,182.715;
81,2024-06-18 22:52:00,182.63,182.57,182.63,182.54,255978.0,46221824.0,1718722320,,,,,,,,,,,5.7123326453225225,-21.081481801985703,0.8157857142857138,73.31716272030671,-56.76854901224316,0,0,97929.416,,,182.63:268.0;,-22.780000000002133,
191,2024-06-29 00:42:00,195.65,196.024,196.024,195.559,249856.0,48890880.0,1719592920,,,,,1.0,,,,,,1.756560469554831,8.019907498080187,0.8858571428571419,84.1862622224522,-74.18945728855086,1,0,49016.916,195.65:250.0;,195.65:250.0;,,0.0,195.65;
195,2024-06-29 00:46:00,195.94,195.97,196.045,195.93,179124.0,35089408.0,1719593160,,,,,,,,,,,8.85216936419717,2.711087365657903,0.9010714285714272,84.1862622224522,72.62914776603701,0,0,98001.916,,,195.94:250.0;,72.49999999999801,
62,2024-07-10 22:33:00,259.03,258.99,259.035,258.841,492760.0,127559680.0,1720621980,,,,,,,1.0,,,,4.4699489602731575,7.984596700924698,1.941142857142856,83.66878175288002,-71.41755898679405,1,0,49045.246,259.03:189.0;,259.03:189.0;,,0.0,259.03;
79,2024-07-10 22:50:00,260.66,261.335,261.335,260.66,375824.0,97372160.0,1720623000,,,,,,,,,,,78.02806088713594,7.264844430572879,1.5801428571428542,83.66878175288002,74.87790732598157,0,0,98309.986,,,260.66:189.0;,308.0700000000099,
354,2024-07-16 03:25:00,256.71,256.645,256.71,256.286,184464.0,47384576.0,1721071500,,,,,,,1.0,,,,10.38917525500981,-14.895291778573435,0.8592142857142895,89.83350115077387,-66.40224925018535,1,0,49278.37600000001,256.71:191.0;,256.71:191.0;,,0.0,256.71;
356,2024-07-16 03:27:00,255.795,255.895,255.96,255.795,265640.0,67465216.0,1721071620,,,,,,,,,,,5.761567154439554,-14.895291778573435,0.8592142857142895,89.83350115077387,-72.27582285217466,0,0,98135.22100000002,,,255.795:191.0;,-174.76499999999848,
5,2024-07-16 21:36:00,255.17,254.832,255.17,254.81,484054.0,123514368.0,1721136960,1.0,,,,,,,,,,50.65126046983736,-12.809445733956416,1.5147857142857095,75.04886416899025,84.28777452035361,1,0,49142.58100000002,255.17:192.0;,255.17:192.0;,,0.0,255.17;
10,2024-07-16 21:41:00,253.24,252.75,253.273,252.75,919101.0,232730624.0,1721137260,,,,,,,,,,,45.5454212819903,-11.15741870777034,1.5844285714285664,75.04886416899025,71.39894703879894,0,0,97764.66100000002,,,253.24:192.0;,-370.55999999999585,
13,2024-07-16 21:44:00,253.89,253.46,253.89,253.36,563399.0,142910464.0,1721137440,,,,,1.0,,,,1.0,,38.52237848924469,-11.15741870777034,1.5844285714285664,75.04886416899025,5.081156986387841,1,0,48763.891000000025,253.89:193.0;,253.89:193.0;,,0.0,253.89;
16,2024-07-16 21:47:00,253.7,253.726,254.04,253.7,352178.0,89474816.0,1721137620,,,,,,,,,,,37.64414746282521,-9.288324385936846,1.637999999999995,75.04886416899025,42.03654305515872,0,0,97727.99100000002,,,253.7:193.0;,-36.66999999999956,
22,2024-07-16 21:53:00,250.955,250.6,250.955,250.6,520990.0,130345472.0,1721137980,,,,,,,1.0,,,,13.673496974911814,-10.912416633822788,1.8029999999999973,75.04886416899025,-75.26621978178525,1,0,48791.76600000002,250.955:195.0;,250.955:195.0;,,0.0,250.955;
25,2024-07-16 21:56:00,250.08,249.58,250.08,249.58,1020300.0,254616576.0,1721138160,,,,,,,,,,,7.639889846282898,-11.125845027936975,1.8622857142857143,75.04886416899025,-73.86554301297043,0,0,97557.36600000002,,,250.08:195.0;,-170.625,
104,2024-07-17 23:15:00,250.111,250.363,250.57,250.111,264212.0,65500160.0,1721229300,,,,,,,1.0,,,,12.852244057697703,6.828444415154706,1.661999999999996,62.19517283796458,-73.62085777878757,1,0,48785.72100000003,250.111:195.0;,250.111:195.0;,,0.0,250.111;
106,2024-07-17 23:17:00,249.61,249.9,250.15,249.61,364188.0,90393600.0,1721229420,,,,,,,,,,,8.98807551889621,6.828444415154706,1.661999999999996,62.19517283796458,-72.36388402836863,0,0,97459.67100000003,,,249.61:195.0;,-97.69499999999539,
10,2024-07-19 21:41:00,246.96,247.2,247.35,246.96,333481.0,82427392.0,1721396460,1.0,,,,,,,,,,39.54922006680994,-11.930838631045065,1.5251428571428594,25.251733713975824,-52.69565344348148,1,0,48808.55100000003,246.96:197.0;,246.96:197.0;,,0.0,246.96;
13,2024-07-19 21:44:00,246.69,246.41,246.69,246.355,317583.0,78301696.0,1721396640,,,,,,,,,,,32.07266240036023,-11.930838631045065,1.5251428571428594,25.251733713975824,-35.319404253869685,0,0,97406.48100000003,,,246.69:197.0;,-53.190000000002016,
36,2024-07-19 22:07:00,243.68,243.868,243.94,243.68,275160.0,66974720.0,1721398020,,,,,,,1.0,,1.0,,-2.1768412612053467,-15.610456647100982,1.878428571428572,20.600145396431188,-76.41116789888704,1,0,48914.16100000003,243.68:199.0;,243.68:199.0;,,0.0,243.68;
42,2024-07-19 22:13:00,242.675,242.54,242.96,242.445,886308.0,214828544.0,1721398380,,,,,,,,,,,-3.5153357786525348,-15.63203808664042,1.9235,20.600145396431188,-66.55552306262601,0,0,97206.48600000003,,,242.675:199.0;,-199.9949999999991,
6,2024-07-26 21:37:00,218.863,218.67,219.579,218.67,474103.0,103917184.0,1722001020,1.0,,,,,,,,,,-1.0033865186337891,4.105735254011762,1.5255714285714288,32.12036648862252,-64.24841444368948,1,0,48618.90000000003,218.863:222.0;,218.863:222.0;,,0.0,218.863;
8,2024-07-26 21:39:00,218.37,218.51,218.85,218.37,489781.0,107086720.0,1722001140,,,,,,,,,,,-4.306704294943479,4.105735254011762,1.5255714285714288,32.12036648862252,-73.03956473530468,0,0,97097.04000000004,,,218.37:222.0;,-109.44599999999889,
12,2024-07-26 21:43:00,217.07,217.298,217.592,216.987,547357.0,118939904.0,1722001380,,,,,,,,,1.0,,-8.477317112243874,-1.9933122896124476,1.6086428571428582,32.12036648862252,-76.1738638055731,1,0,48690.43000000004,217.07:223.0;,217.07:223.0;,,0.0,217.07;
14,2024-07-26 21:45:00,218.49,219.06,219.06,218.435,556164.0,121616128.0,1722001500,,,,,1.0,,,,,,-3.582226335176337,-2.787127827884774,1.710071428571431,32.12036648862252,-70.53359374492348,1,0,185.65000000003783,217.07:223.0;218.49:222.0;,218.49:222.0;,,0.0,218.49;218.49;
18,2024-07-26 21:49:00,218.315,218.28,218.52,218.17,302057.0,65963776.0,1722001740,,,,,,,,,,,4.2959527211780255,-2.787127827884774,1.710071428571431,32.12036648862252,44.00439848519869,0,0,97335.82500000004,,,218.315:223.0;218.315:222.0;,238.7849999999985,
64,2024-07-26 22:35:00,216.479,216.52,216.645,216.36,243776.0,52673536.0,1722004500,,,,,,,1.0,,,,11.19011850727648,-14.280219697299117,2.1137142857142868,29.18133418066207,-72.98716537627763,1,0,48844.52900000004,216.479:224.0;,216.479:224.0;,,0.0,216.479;
75,2024-07-26 22:46:00,216.738,216.55,216.8,216.55,229032.0,49535488.0,1722005160,,,,,,,,,,,25.92105177634957,-14.984195994473382,1.5320000000000005,29.18133418066207,48.504946682944414,0,0,97393.84100000004,,,216.738:224.0;,58.01599999999689,
98,2024-07-30 23:09:00,227.176,227.074,227.225,226.91,336288.0,75572224.0,1722352140,,,,,,,,,1.0,,-18.332959902158308,8.630635957269831,1.2425714285714275,101.77324926238391,-75.7231146803177,1,0,48778.17700000005,227.176:214.0;,227.176:214.0;,,0.0,227.176;
99,2024-07-30 23:10:00,226.65,226.855,226.95,226.65,240332.0,53748736.0,1722352200,,,,,,,,,,,-17.913518119627668,4.93620857418766,1.2218571428571423,101.77324926238391,-73.92856650988348,0,0,97281.27700000005,,,226.65:214.0;,-112.56399999999616,
124,2024-07-30 23:35:00,225.7,225.73,225.77,225.54,165524.0,36875264.0,1722353700,,,,,,,1.0,,,,-5.562994602135845,-7.7334796141916655,1.1078571428571482,99.74460294054394,-74.15675634329041,1,0,48755.777000000046,225.7:215.0;,225.7:215.0;,,0.0,225.7;
126,2024-07-30 23:37:00,225.263,225.29,225.29,225.12,276940.0,61926400.0,1722353820,,,,,,,,,,,-6.598159435766014,-7.7334796141916655,1.1078571428571482,99.74460294054394,-76.12282906031078,0,0,97187.32200000004,,,225.263:215.0;,-93.95499999999643,
213,2024-07-31 01:04:00,220.24,220.29,220.29,220.22,104544.0,23025664.0,1722359040,,,1.0,,,,,,,,4.15958085714794,-15.849944881588009,0.9138571428571476,81.68834266432508,-70.92565267173924,1,0,48514.28200000004,220.24:221.0;,220.24:221.0;,,0.0,220.24;
234,2024-07-31 01:25:00,222.25,222.44,222.44,222.25,98304.0,21811200.0,1722360300,,,,,,,,,,,106.4125648376143,-6.0479606873072775,0.868857142857144,81.68834266432508,82.60899868900133,0,0,97631.53200000004,,,222.25:221.0;,444.209999999998,
68,2024-08-01 22:39:00,226.124,226.776,226.776,226.124,249488.0,55908864.0,1722523140,,,,,,,,,1.0,,-6.494725082940107,8.112566050499268,1.8862142857142865,77.55975528236657,-77.0412372630573,1,0,49014.87200000004,226.124:215.0;,226.124:215.0;,,0.0,226.124;
77,2024-08-01 22:48:00,226.036,225.952,226.2,225.952,151384.0,33831936.0,1722523680,,,,,,,,,,,2.103546446247634,2.242295466142423,1.3922857142857157,77.55975528236657,-61.94265906712401,0,0,97612.61200000004,,,226.036:215.0;,-18.91999999999868,
94,2024-08-01 23:05:00,224.28,223.935,224.28,223.935,265636.0,59109888.0,1722524700,,,,,,,1.0,,,,-1.78847689942814,-12.68050110130008,1.2165000000000004,71.57022596773606,-74.56740893608641,1,0,48943.852000000035,224.28:217.0;,224.28:217.0;,,0.0,224.28;
109,2024-08-01 23:20:00,224.7,225.14,225.14,224.7,162304.0,36048384.0,1722525600,,,,,,,,,,,27.659740711019207,-16.03182816971612,0.9059285714285708,71.57022596773606,74.55814030739022,0,0,97703.75200000004,,,224.7:217.0;,91.13999999999729,
238,2024-08-02 01:29:00,220.12,220.115,220.12,220.1,99136.0,21730304.0,1722533340,,,1.0,,,,,,,,7.0316292633995765,-13.808468812727453,0.5484999999999981,43.21938068065698,-35.148534292471645,1,0,49057.23200000003,220.12:221.0;,220.12:221.0;,,0.0,220.12;
240,2024-08-02 01:31:00,219.8,219.86,219.96,219.8,73392.0,16028672.0,1722533460,,,,,,,,,,,8.51282832580775,-13.406698634515962,0.5427857142857135,34.431585195548976,48.04560604108519,0,0,97633.03200000004,,,219.8:221.0;,-70.71999999999849,
327,2024-08-02 02:58:00,215.2,215.44,215.49,215.2,205992.0,44279808.0,1722538680,,,,,1.0,,,,,,-8.767803402488632,-2.1517326381395137,0.8679285714285682,21.88808185652641,-76.48323575320454,1,0,48997.83200000004,215.2:226.0;,215.2:226.0;,,0.0,215.2;
330,2024-08-02 03:01:00,215.14,215.065,215.14,214.96,178624.0,38329344.0,1722538860,,,,,,,,,,,-7.595048776552389,-2.7896208060349146,0.8126428571428518,15.269795672640711,-72.07394389356982,0,0,97619.47200000004,,,215.14:226.0;,-13.560000000000514,
42,2024-08-02 22:13:00,211.13,210.755,211.13,210.65,266058.0,56112384.0,1722607980,1.0,,,,,,,,1.0,,-4.876519047997959,19.603396100644908,3.3794999999999997,-8.105598177276434,-74.5443430152376,1,0,48848.44200000004,211.13:231.0;,211.13:231.0;,,0.0,211.13;
66,2024-08-02 22:37:00,212.602,213.01,213.22,212.602,233692.0,49345024.0,1722609420,,,,,,,,,,,61.50405876053124,14.771141861920285,3.460071428571427,-10.256292499145374,15.10577996652185,0,0,97959.50400000004,,,212.602:231.0;,340.032000000002,
106,2024-08-02 23:17:00,208.58,208.01,208.58,207.955,553296.0,114380288.0,1722611820,,,,,,,1.0,,,,-5.940248830833735,3.1122837781933086,1.4306428571428569,-14.085421203541188,-54.74991640303491,1,0,49151.78400000004,208.58:234.0;,208.58:234.0;,,0.0,208.58;
110,2024-08-02 23:21:00,208.12,207.26,208.14,207.26,468544.0,96710144.0,1722612060,,,,,,,,,,,-3.262024460942783,2.2149188186463533,1.3165714285714276,-14.085421203541188,32.21000930598378,0,0,97851.86400000005,,,208.12:234.0;,-107.64000000000186,
253,2024-08-03 01:44:00,206.46,206.34,206.46,206.33,169092.0,34793472.0,1722620640,,,1.0,,,,,,,,-0.1688991089982749,3.180802828006744,0.8530000000000005,-22.586795154930957,-68.90507612880293,1,0,49127.30400000004,206.46:236.0;,206.46:236.0;,,0.0,206.46;
256,2024-08-03 01:47:00,206.37,206.15,206.463,206.15,114156.0,23441408.0,1722620820,,,,,,,,,,,5.183304968070544,3.7985633564040953,0.8390000000000006,-22.586795154930957,21.926254044328893,0,0,97830.62400000004,,,206.37:236.0;,-21.240000000000805,
9,2024-08-06 21:40:00,197.07,196.08,197.07,196.08,499703.0,98263680.0,1722951600,1.0,,,,,,,,1.0,,6.100533371284627,2.934267903751177,2.096571428571425,39.03126641176178,-75.342601260144,1,0,48957.26400000004,197.07:248.0;,197.07:248.0;,,0.0,197.07;
11,2024-08-06 21:42:00,195.09,194.939,195.09,194.54,736712.0,143682304.0,1722951720,,,,,,,,,,,-2.974257513870043,2.934267903751177,2.096571428571425,39.03126641176178,-77.61402268496259,0,0,97339.58400000003,,,195.09:248.0;,-491.03999999999746,
17,2024-08-06 21:48:00,195.392,195.56,195.56,195.26,615274.0,120170496.0,1722952080,,,,,,,1.0,,,,-14.241408584363413,-0.9821216394377784,2.2162142857142846,39.03126641176178,-77.73186090733519,1,0,48491.58400000003,195.392:250.0;,195.392:250.0;,,0.0,195.392;
18,2024-08-06 21:49:00,195.46,196.105,196.105,195.46,377145.0,73890304.0,1722952140,,,,,1.0,,,,,,-11.83476127936801,-0.9821216394377784,2.2162142857142846,39.03126641176178,-74.87793941245326,1,0,17.50400000002992,195.392:250.0;195.46:248.0;,195.46:248.0;,,0.0,195.46;195.46;
36,2024-08-06 22:07:00,197.818,198.2,198.2,197.44,342504.0,67749120.0,1722953220,,1.0,,,,,,,,,28.59636763519734,8.92187331511738,2.629499999999997,39.32935605709309,56.18448685341078,0,1,49274.18600000003,195.392:125.0;195.46:124.0;,,197.818:125;197.818:124;,595.6420000000026,198.62;198.62;
45,2024-08-06 22:16:00,197.056,196.1,197.056,196.1,394676.0,77505792.0,1722953760,,,,,,,,,,,37.693408546566914,13.200518797549536,2.6502142857142803,39.32935605709309,34.401737362790165,0,0,98341.13000000003,,,197.056:125.0;197.056:124.0;,405.9040000000024,
288,2024-08-08 02:19:00,192.735,192.252,192.735,192.252,230104.0,44335104.0,1723054740,,,1.0,,1.0,,,,,,-5.263608229542331,-13.766339321746884,0.7619285714285736,37.55645082409755,-71.38482792965702,1,0,49193.70500000003,192.735:255.0;,192.735:255.0;,,0.0,192.735;
289,2024-08-08 02:20:00,192.2,192.43,192.55,192.2,183468.0,35314688.0,1723054800,,,,,,,,,,,-4.86477138535097,-15.208232935427205,0.7337142857142871,37.55645082409755,-74.82428748121804,0,0,98204.70500000003,,,192.2:255.0;,-136.42500000000638,
5,2024-08-08 21:36:00,194.97,195.43,195.43,194.52,378711.0,73824704.0,1723124160,1.0,,,,,,,,,,57.34959096485376,17.79378098914946,1.4205,38.40795501439622,73.57151791277359,1,0,49267.23500000003,194.97:251.0;,194.97:251.0;,,0.0,194.97;
8,2024-08-08 21:39:00,194.337,194.65,194.7,194.17,312067.0,60713792.0,1723124340,,,,,,,,,,,75.62384041206393,17.79378098914946,1.4205,38.40795501439622,75.2365208740289,0,0,98045.82200000003,,,194.337:251.0;,-158.88300000000245,
67,2024-08-09 22:38:00,195.91,195.822,195.91,195.738,158316.0,31099648.0,1723214280,,,,,,,,,1.0,,-2.3641623600216093,-8.555067821678051,1.8614285714285737,58.92391607274587,-74.90377165240915,1,0,49068.32200000003,195.91:250.0;,195.91:250.0;,,0.0,195.91;
103,2024-08-09 23:14:00,198.127,198.54,198.54,198.127,189416.0,37126144.0,1723216440,,,,,,,,,,,121.72995270729132,-0.4881461303444467,0.9928571428571472,57.910842909982,74.17379326698605,0,0,98600.07200000003,,,198.127:250.0;,554.2500000000032,
24,2024-08-14 21:55:00,203.065,202.38,203.1,202.38,455015.0,92308224.0,1723643700,,,,,,,1.0,,,,-23.46066009587382,18.483555680516844,1.209071428571426,103.20325292792764,-77.92258288698206,1,0,49458.34200000003,203.065:242.0;,203.065:242.0;,,0.0,203.065;
25,2024-08-14 21:56:00,202.39,202.11,202.39,202.11,357361.0,72327680.0,1723643760,,,,,,,,,,,-24.283332758509157,18.483555680516844,1.209071428571426,103.20325292792764,-78.35157122424309,0,0,98436.72200000004,,,202.39:242.0;,-163.35000000000275,
28,2024-08-14 21:59:00,202.564,202.865,202.87,202.564,299201.0,60684032.0,1723643940,,,,,1.0,,,,,,-22.436612495330948,18.483555680516844,1.209071428571426,103.20325292792764,-77.72493892857061,1,0,49213.67000000004,202.564:243.0;,202.564:243.0;,,0.0,202.564;
37,2024-08-14 22:08:00,202.58,202.425,202.709,202.371,262891.0,53295616.0,1723644480,,,,,,,,,,,-9.972394555297823,8.238768361940004,1.2706428571428543,95.96831714761971,-64.01553172377545,0,0,98440.61000000004,,,202.58:243.0;,3.8880000000047517,
177,2024-08-15 00:28:00,200.371,200.4,200.47,200.371,140888.0,28203520.0,1723652880,,,,,1.0,,,,,,-22.167237041908702,1.728693877079067,0.5904285714285707,71.9545635487232,-77.51564233456295,1,0,49149.34400000004,200.371:246.0;,200.371:246.0;,,0.0,200.371;
182,2024-08-15 00:33:00,200.08,200.303,200.303,200.08,121616.0,24315392.0,1723653180,,,,,,,,,,,-25.70636829516063,-0.4466358550165523,0.5836428571428546,65.06223791013338,-77.63010038550388,0,0,98369.02400000003,,,200.08:246.0;,-71.58599999999922,
65,2024-08-22 22:36:00,219.905,220.335,220.335,219.905,258780.0,56498688.0,1724337360,,,,,,,1.0,,,,1.5265066233030211,4.892380202518154,1.288499999999997,56.516001502354015,-73.54618172306587,1,0,49330.20900000003,219.905:223.0;,219.905:223.0;,,0.0,219.905;
75,2024-08-22 22:46:00,219.68,219.86,219.865,219.68,166428.0,36206080.0,1724337960,,,,,,,,,,,13.180607790479511,-0.9268111750946276,1.059928571428569,56.516001502354015,-45.11318708083679,0,0,98318.84900000003,,,219.68:223.0;,-50.17499999999873,
261,2024-08-23 01:52:00,213.84,213.73,213.84,213.72,162164.0,34600960.0,1724349120,,,1.0,,,,,,,,-10.325751416700172,-8.1525281399269,0.5629999999999963,20.014213009660608,-77.39823786404148,1,0,49135.64900000003,213.84:230.0;,213.84:230.0;,,0.0,213.84;
262,2024-08-23 01:53:00,213.48,213.49,213.67,213.48,201220.0,42914816.0,1724349180,,,,,,,,,,,-10.332807010509324,-8.1525281399269,0.5629999999999963,20.014213009660608,-77.91456139400614,0,0,98236.04900000003,,,213.48:230.0;,-82.80000000000314,
266,2024-08-23 01:57:00,213.39,213.544,213.544,213.39,174412.0,37164032.0,1724349420,,,,,1.0,,,,,,-6.340349181129984,-8.52573407094576,0.6019285714285688,20.014213009660608,-74.87068570247904,1,0,49156.34900000003,213.39:230.0;,213.39:230.0;,,0.0,213.39;
275,2024-08-23 02:06:00,213.38,213.49,213.5,213.36,142604.0,30365696.0,1724349960,,,,,,,,,,,7.038650999336333,-7.43092428747789,0.5597142857142866,12.992627915148148,-24.332493592602653,0,0,98233.74900000004,,,213.38:230.0;,-2.299999999997908,
385,2024-08-23 03:56:00,211.08,210.82,211.18,210.82,352216.0,74230784.0,1724356560,,,,,1.0,,,,,,-14.799889070827366,0.9268238863175924,0.5546428571428602,-3.848583635195965,-73.82717855471577,1,0,98233.74900000004,,,,0.0,
51,2024-08-26 22:22:00,213.741,213.32,213.741,213.32,285407.0,60998656.0,1724682120,,,,,,,1.0,,1.0,,-8.755157328619763,13.926491778990028,1.1808571428571497,60.27193360361652,-76.32492659506522,1,0,49287.060000000034,213.741:229.0;,213.741:229.0;,,0.0,213.741;
53,2024-08-26 22:24:00,213.194,213.27,213.33,213.194,221444.0,47229184.0,1724682240,,,,,,,,,,,-8.80141365060074,13.926491778990028,1.1808571428571497,60.27193360361652,-76.55917827407275,0,0,98108.48600000003,,,213.194:229.0;,-125.26300000000583,
103,2024-08-28 23:14:00,204.825,204.71,204.825,204.57,136630.0,27552768.0,1724858040,,,,,,,1.0,,,,6.210154156717714,-4.439895644770559,0.8786428571428522,9.843147003341173,-72.29913629811406,1,0,49155.31100000004,204.825:239.0;,204.825:239.0;,,0.0,204.825;
130,2024-08-28 23:41:00,205.09,205.1,205.13,204.925,99014.0,19799040.0,1724859660,,,,,,,,,,,42.44837837630431,-9.254580743617788,0.7836428571428533,8.137019660796035,63.79912845327082,0,0,98171.82100000004,,,205.09:239.0;,63.33500000000353,
5,2024-08-30 21:36:00,207.75,207.445,207.768,207.43,295798.0,61382336.0,1725024960,1.0,,,,,,,,,,34.96821426503101,-13.512911423193811,0.9936428571428552,64.12275451168324,75.83229630194614,1,0,49142.82100000004,207.75:236.0;,207.75:236.0;,,0.0,207.75;
10,2024-08-30 21:41:00,207.745,207.93,207.93,207.41,382931.0,79495680.0,1725025260,,,,,,,,,,,40.4771760288042,-11.389389223852971,1.0293571428571389,64.12275451168324,71.49217613008237,0,0,98170.64100000003,,,207.745:236.0;,-1.1799999999989268,
