,dt,open,close,high,low,vol,turnover,ts,icon_1,icon_2,icon_11,icon_12,icon_13,icon_41,icon_34,icon_35,icon_38,icon_39,jw1,jw5,atr5,jw30,baijiao,buy_signal,sell_signal,cash,chicang,buy_detail,sell_detail,profit,max_zhiying_prices
320,2024-01-06 03:51:00,138.52,138.283,138.52,138.283,208292.0,28822528.0,1704484260,1.0,,,,,,,,,,-12.444218538382358,-14.428019603994656,0.3055000000000031,61.60743521014365,-76.11081958994527,1,0,50132.799999999996,138.52:360.0;,138.52:360.0;,,0.0,138.52;
328,2024-01-06 03:59:00,138.075,137.97,138.13,137.96,277508.0,38292480.0,1704484740,,,,,,,,,,,-10.58373150773954,-17.045432175083164,0.3119285714285748,61.60743521014365,-75.80104719015274,0,0,99839.79999999999,,,138.075:360.0;,-160.20000000000778,
18,2024-01-10 22:49:00,147.525,147.67,147.67,147.457,267237.0,39435392.0,1704898140,,,,,,,1.0,,1.0,,4.833806410355777,18.37347835308836,0.615714285714284,95.81726768181004,-76.95754760366374,1,0,49976.349999999984,147.525:338.0;,147.525:338.0;,,0.0,147.525;
27,2024-01-10 22:58:00,146.839,146.841,146.841,146.66,278111.0,40818688.0,1704898680,,,,,,,,,,,-9.063528098747668,6.718781016920843,0.6249999999999959,95.81726768181004,-78.19684576992168,0,0,99607.93199999999,,,146.839:338.0;,-231.86800000000238,
24,2024-01-17 22:55:00,155.693,155.48,155.693,155.33,365484.0,56829184.0,1705503300,,,,,,,,,1.0,,-18.257663869480357,15.32333773758164,1.0994285714285692,104.81283105816162,-77.61706721785603,1,0,49941.86499999998,155.693:319.0;,155.693:319.0;,,0.0,155.693;
31,2024-01-17 23:02:00,155.15,154.94,155.15,154.69,472492.0,73171968.0,1705503720,,,,,,,1.0,,,,-19.76637153905054,9.23268751555102,1.139714285714285,101.87866593702256,-77.92702740616897,1,0,293.8649999999834,155.693:319.0;155.15:320.0;,155.15:320.0;,,0.0,155.736;155.15;
98,2024-01-18 00:09:00,157.06,156.94,157.145,156.94,183420.0,28811776.0,1705507740,,1.0,,,,,,,,,96.27419263446222,11.695438155563252,0.7804285714285787,99.9869182740814,80.05445058185825,0,1,50553.06499999998,155.693:159.0;155.15:160.0;,,157.06:160;157.06:160;,524.3199999999979,157.23;157.23;
127,2024-01-18 00:38:00,158.19,158.325,158.334,158.19,199968.0,31654400.0,1705509480,,,,,,,,,,1.0,106.0698691070974,32.957988334178964,0.6498571428571479,100.76800227876244,36.23646210565542,0,1,101015.67499999999,,,158.19:159.0;158.19:160.0;,883.4229999999965,158.39;158.39;
186,2024-01-19 01:37:00,160.324,160.64,160.64,160.324,325408.0,52296704.0,1705599420,,,1.0,,,,,,,,12.02292670682317,5.893653567795852,0.6877142857142827,78.09384095570454,-67.27454884362389,1,0,50513.61499999998,160.324:315.0;,160.324:315.0;,,0.0,160.324;
202,2024-01-19 01:53:00,160.14,159.8,160.14,159.8,582856.0,93415424.0,1705600380,,,,,,,,,,,42.28723541420005,0.1109308495394287,0.707571428571427,78.09384095570454,-10.417003933943084,0,0,100957.71499999998,,,160.14:315.0;,-57.960000000008165,
62,2024-01-22 23:33:00,165.77,165.71,165.77,165.455,626648.0,103615488.0,1705937580,,,1.0,,,,,,,,-7.4322953811189905,-8.255824344964765,1.80085714285714,91.20089182914182,-78.26529676244851,1,0,50563.63499999998,165.77:304.0;,165.77:304.0;,,0.0,165.77;
90,2024-01-23 00:01:00,164.3,164.225,164.3,164.19,436248.0,71541760.0,1705939260,,,,,,,,,,,12.696125151540656,-26.775247841971293,1.2402142857142835,83.34393224867856,-23.792928176705384,0,0,100510.83499999999,,,164.3:304.0;,-446.87999999999965,
275,2024-01-26 03:06:00,178.35,178.79,178.79,178.28,326040.0,58224640.0,1706209560,,,,,,,1.0,,,,7.377749512531622,-1.1208045785186729,0.7539999999999988,95.00121904597135,-75.38790598883787,1,0,50394.48499999999,178.35:281.0;,178.35:281.0;,,0.0,178.35;
353,2024-01-26 04:24:00,179.914,179.83,179.919,179.815,160856.0,28948480.0,1706214240,,,,,,,,,,,70.84708437331716,19.20310307359381,0.6164999999999959,92.30079038053174,4.020957219678446,0,0,100950.31899999999,,,179.914:281.0;,439.483999999998,
176,2024-01-31 01:27:00,173.56,173.32,173.772,173.32,450756.0,78152704.0,1706635620,,,,,,,1.0,,,,-20.673682056541608,18.52842708342281,0.6387142857142842,17.383996727302886,-78.59631934701301,1,0,50617.91899999999,173.56:290.0;,173.56:290.0;,,0.0,173.56;
178,2024-01-31 01:29:00,173.704,173.87,173.87,173.635,293084.0,50898432.0,1706635740,,,,,1.0,,,,,,-18.714608044142395,18.52842708342281,0.6387142857142842,17.383996727302886,-78.10924139477176,1,0,243.75899999998364,173.56:290.0;173.704:290.0;,173.704:290.0;,,0.0,173.704;173.704;
184,2024-01-31 01:35:00,172.835,173.16,173.16,172.75,408868.0,70668288.0,1706636100,,,,,,,,,,,-17.12064251350464,9.632458717236888,0.6808571428571436,11.622774729712503,-77.4524356039303,0,0,100488.05899999998,,,172.835:290.0;172.835:290.0;,-462.2599999999983,
264,2024-01-31 02:55:00,170.22,170.43,170.43,170.04,358208.0,60945408.0,1706640900,,,1.0,,,,,,,,4.563868913017743,-10.866160787694753,0.7042857142857132,3.424474299454758,-3.350646555155889,1,0,50102.93899999998,170.22:296.0;,170.22:296.0;,,0.0,170.22;
287,2024-01-31 03:18:00,170.466,170.53,170.578,170.466,150896.0,25738240.0,1706642280,,,,,,,,,,,42.86563519553081,-6.02544478609618,0.6313571428571387,0.3954485550202093,37.99277847330775,0,0,100560.87499999997,,,170.466:296.0;,72.81600000000276,
302,2024-02-09 03:33:00,169.37,169.3,169.37,169.278,73290.0,12407808.0,1707420780,,,,,1.0,,,,,,-16.76838457844611,15.134906766426084,0.2747857142857149,52.18058004856081,-75.98392143029396,1,0,50427.35499999997,169.37:296.0;,169.37:296.0;,,0.0,169.37;
306,2024-02-09 03:37:00,168.997,168.922,168.997,168.845,187304.0,31625216.0,1707421020,,,,,,,,,,,-19.721047950107547,9.362776126590148,0.2830000000000012,52.18058004856081,-78.18327227678678,0,0,100450.46699999998,,,168.997:296.0;,-110.40799999999717,
310,2024-02-09 03:41:00,168.862,168.82,168.862,168.816,65660.0,11082752.0,1707421260,,,,,,,,,1.0,,-17.481467370370275,5.896964907071904,0.2930714285714312,52.18058004856081,-76.75850996796382,1,0,50298.45299999998,168.862:297.0;,168.862:297.0;,,0.0,168.862;
359,2024-02-09 04:30:00,169.635,169.605,169.635,169.59,46732.0,7917056.0,1707424200,,,,,,,,,,,112.89900891014608,22.29779426535268,0.2872857142857197,52.36810998645633,62.467967141730114,0,0,100680.04799999998,,,169.635:297.0;,229.58099999999885,169.82;
288,2024-02-13 03:19:00,171.349,171.02,171.349,171.02,258752.0,44196352.0,1707765540,,,,,,,1.0,,,,-2.783950691556919,7.525970771628465,0.5850714285714288,102.88690452601342,-77.42774165893141,1,0,50474.79099999998,171.349:293.0;,171.349:293.0;,,0.0,171.349;
329,2024-02-13 04:00:00,171.71,171.767,171.767,171.68,59680.0,10252288.0,1707768000,,,,,,,,,,,66.28084151940371,-7.331356735818289,0.658857142857138,87.58133553910415,9.960645556512157,0,0,100785.82099999998,,,171.71:293.0;,105.7730000000054,
24,2024-02-23 22:55:00,179.765,179.83,179.83,179.43,335061.0,60241920.0,1708700100,,,,,,,1.0,,,,2.4172125055776803,16.703051924660315,1.0080714285714285,121.69387711828278,-77.12004087791222,1,0,50451.620999999985,179.765:280.0;,179.765:280.0;,,0.0,179.765;
28,2024-02-23 22:59:00,178.33,178.3,178.488,178.3,487133.0,86918400.0,1708700340,,,,,,,,,,,-8.006003688183341,16.703051924660315,1.0080714285714285,121.69387711828278,-78.04647210577475,0,0,100384.02099999998,,,178.33:280.0;,-401.7999999999927,
32,2024-02-23 23:03:00,178.53,178.97,178.97,178.53,531229.0,94967808.0,1708700580,,,,,1.0,,,,,,-8.434498069333848,9.337045711746356,1.1042857142857148,120.81643926594263,-76.55242051270692,1,0,50038.56099999998,178.53:282.0;,178.53:282.0;,,0.0,178.53;
40,2024-02-23 23:11:00,177.48,177.59,177.615,177.41,374752.0,66513664.0,1708701060,,,,,,,,,,,-9.792839537734238,-2.74833611268312,1.168214285714285,120.81643926594263,-74.9886838951999,0,0,100087.92099999997,,,177.48:282.0;,-296.1000000000032,
98,2024-02-24 00:09:00,175.185,175.54,175.63,175.185,244190.0,42800640.0,1708704540,,,,,1.0,,,,,,7.571904812376268,-24.53751357589765,0.9430714285714268,116.54098037044416,-72.38752290739059,1,0,49809.82599999997,175.185:287.0;,175.185:287.0;,,0.0,175.185;
105,2024-02-24 00:16:00,175.04,175.09,175.14,175.01,213472.0,37316096.0,1708704960,,,1.0,,,,,,,,7.088758613151839,-24.91841361880724,0.8554285714285673,116.54098037044416,-8.951230053264489,1,0,98.46599999997125,175.185:287.0;175.04:284.0;,175.04:284.0;,,0.0,175.54;175.04;
140,2024-02-24 00:51:00,175.645,175.9,175.9,175.645,130940.0,22979072.0,1708707060,,,,,,,,,,,80.1034805081966,-13.458589841807736,0.7612142857142804,113.9261221167893,20.898401294753025,0,0,100391.76099999998,,,175.645:287.0;175.645:284.0;,303.8400000000074,
39,2024-02-28 23:10:00,174.206,174.17,174.21,174.16,158020.0,27521664.0,1709133000,1.0,,,,,,,,,,-5.954814438654971,16.554889618960743,0.7662857142857129,39.278728479350406,-74.498888547999,1,0,50220.43299999999,174.206:288.0;,174.206:288.0;,,0.0,174.206;
100,2024-02-29 00:11:00,175.72,175.63,175.744,175.62,57672.0,10150144.0,1709136660,,1.0,,,,,,,,,110.0448776657428,8.209362445225793,0.4956428571428566,28.21875465594329,74.1077714386373,0,1,75524.11299999998,174.206:144.0;,,175.72:144;,218.01600000000144,175.835;
139,2024-02-29 00:50:00,176.154,176.19,176.19,176.124,229418.0,40407040.0,1709139000,,,,,,,,,,,71.44155245318493,39.95942652555971,0.3603571428571399,26.246992483681865,-15.03443560420632,0,0,100890.28899999999,,,176.154:144.0;,280.5120000000011,
9,2024-03-12 21:40:00,196.85,196.32,196.855,196.17,423109.0,83123584.0,1710250800,,,,,,,1.0,,1.0,,26.999784993589145,17.524065610678534,1.125785714285716,-3.9114402016431953,-73.91257109907922,1,0,50496.68899999999,196.85:256.0;,196.85:256.0;,,0.0,196.85;
15,2024-03-12 21:46:00,194.85,194.865,194.865,194.39,370345.0,72118400.0,1710251160,,,,,,,,,,,-0.015052348935356,14.508581662660935,1.241428571428573,-3.9114402016431953,-77.88201317253896,0,0,100378.28899999999,,,194.85:256.0;,-512.0,
20,2024-03-12 21:51:00,195.78,196.43,196.43,195.64,467059.0,91544064.0,1710251460,,,,,1.0,,,,,,-2.029171721689238,15.001582446662113,1.3146428571428612,-3.9114402016431953,-70.85860290641439,1,0,50062.82899999999,195.78:257.0;,195.78:257.0;,,0.0,195.78;
31,2024-03-12 22:02:00,197.76,198.29,198.29,197.76,266474.0,52778240.0,1710252120,,1.0,,,,,,,,,37.49299362542291,25.37913250843144,1.4525000000000026,-3.6438683558792206,75.640685169768,0,1,75573.86899999999,195.78:128.0;,,197.76:129;,255.41999999999868,198.01;
48,2024-03-12 22:19:00,196.645,196.74,196.889,196.645,194096.0,38195200.0,1710253140,,,,,,,,,,,55.1382308081536,36.262881534333175,1.5527857142857189,-3.6438683558792206,-20.955638278404123,0,0,100744.42899999999,,,196.645:128.0;,110.72000000000116,
46,2024-03-13 22:17:00,193.74,192.89,193.74,192.72,630604.0,121919744.0,1710339420,,,,,,,1.0,,,,-9.137940720946707,7.92997283383383,1.781785714285712,19.01633858366704,-76.267981926428,1,0,50565.768999999986,193.74:259.0;,193.74:259.0;,,0.0,193.74;
104,2024-03-13 23:15:00,195.705,195.455,195.705,195.378,229790.0,44880384.0,1710342900,,1.0,,,,,,,,,104.97160183899696,-8.754272062918687,1.059214285714282,14.68003844212031,78.98454487200424,0,1,76007.419,193.74:129.0;,,195.705:130;,255.45000000000044,196.06;
118,2024-03-13 23:29:00,194.673,194.345,194.673,194.345,195912.0,38114816.0,1710343740,,,,,,,,,,,62.275959313513226,-6.889593530508975,0.9110714285714262,14.68003844212031,29.940302220290818,0,0,101120.23599999999,,,194.673:129.0;,120.35699999999906,
224,2024-03-15 01:15:00,189.269,189.588,189.588,189.269,313968.0,59442176.0,1710436500,,,,,1.0,,,,,,-8.943914184708397,-7.570935713937402,0.5745714285714294,3.077444843068413,-77.61653075194118,1,0,50585.412999999986,189.269:267.0;,189.269:267.0;,,0.0,189.269;
230,2024-03-15 01:21:00,188.755,188.66,189.17,188.66,327420.0,61828096.0,1710436860,,,,,,,,,,,-12.468463652521365,-9.546639127305568,0.5794285714285711,3.077444843068413,-77.60068963225133,0,0,100982.99799999999,,,188.755:267.0;,-137.23800000000267,
233,2024-03-15 01:24:00,188.665,188.74,188.84,188.665,213272.0,40226304.0,1710437040,,,,,,,1.0,,,,-9.345607196518031,-9.546639127305568,0.5794285714285711,3.077444843068413,-72.50083220714879,1,0,50609.44299999999,188.665:267.0;,188.665:267.0;,,0.0,188.665;
241,2024-03-15 01:32:00,188.29,188.39,188.407,188.25,157492.0,29645312.0,1710437520,,,,,,,,,,,-3.066238402076958,-11.31675476188223,0.6290714285714277,1.5097187397147067,-68.79078133360035,0,0,100882.87299999999,,,188.29:267.0;,-100.125,
255,2024-03-15 01:46:00,187.13,186.49,187.13,186.49,418732.0,78171136.0,1710438360,,,1.0,,,,,,,,-2.70672041907342,-12.502001150037202,0.7312142857142833,1.5097187397147067,-68.04833937345678,1,0,50357.772999999994,187.13:270.0;,187.13:270.0;,,0.0,187.13;
288,2024-03-15 02:19:00,187.195,187.26,187.26,187.165,206436.0,38601728.0,1710440340,,,,,,,,,,,69.6316161157945,-1.1839293643809583,0.8794999999999992,1.932824754930202,60.07569444978218,0,0,100900.423,,,187.195:270.0;,17.549999999999386,
9,2024-03-18 21:40:00,191.06,191.33,191.33,191.06,216133.0,41322560.0,1710769200,1.0,,,,,,,,,,7.771526281811717,17.044662432253006,0.9956428571428546,48.93190812100134,-69.72488809110588,1,0,50460.58299999999,191.06:264.0;,191.06:264.0;,,0.0,191.06;
22,2024-03-18 21:53:00,189.861,189.363,189.861,189.3,590351.0,111931392.0,1710769980,,,,,,,,,,,11.525906635757451,11.921565028732118,1.0541428571428515,48.93190812100134,-62.98082130577698,0,0,100583.88699999999,,,189.861:264.0;,-316.53600000000324,
24,2024-03-18 21:55:00,189.79,190.05,190.075,189.72,252230.0,47870336.0,1710770100,,,,,,,,,1.0,,9.808999827034398,7.706237261736788,1.1832857142857085,48.93190812100134,-70.85132389532475,1,0,50289.53699999999,189.79:265.0;,189.79:265.0;,,0.0,189.79;
33,2024-03-18 22:04:00,189.041,189.263,189.304,189.041,206099.0,39003904.0,1710770640,,,,,,,1.0,,,,-0.2648129359289299,1.58105314402259,1.25471428571428,46.86988489485077,-74.89380057640393,1,0,4.6309999999866704,189.79:265.0;189.041:266.0;,189.041:266.0;,,0.0,189.99;189.041;
61,2024-03-18 22:32:00,191.61,191.37,191.61,191.35,172080.0,32950528.0,1710772320,,1.0,,,,,,,,,102.59840549367,11.38004480400771,1.519428571428569,47.90454780031959,73.24806027952408,0,1,50972.89099999999,189.79:132.0;189.041:133.0;,,191.61:133;191.61:133;,583.7370000000051,191.867;191.867;
72,2024-03-18 22:43:00,192.791,192.84,192.84,192.72,156934.0,30274048.0,1710772980,,,,,,,,,,1.0,126.5158570120338,22.03083144908828,1.438214285714285,47.90454780031959,71.95804665497143,0,1,102062.506,,,192.791:132.0;192.791:133.0;,894.8820000000006,192.98;192.98;
33,2024-03-19 22:04:00,180.05,180.27,180.414,180.05,300512.0,54156800.0,1710857040,,,,,,,,,1.0,,-6.590789284830954,19.16588596820212,1.89357142857143,47.86733615133008,-76.7541806585444,1,0,51108.35599999999,180.05:283.0;,180.05:283.0;,,0.0,180.05;
51,2024-03-19 22:22:00,178.12,178.44,178.494,178.12,441538.0,78796800.0,1710858120,,,,,,,,,,,-0.0766119193076839,-1.0363515187528949,2.071000000000002,47.86733615133008,-77.43710554367287,0,0,101516.31599999999,,,178.12:283.0;,-546.1900000000019,
52,2024-03-19 22:23:00,178.447,178.251,178.75,178.251,371030.0,66277888.0,1710858180,,,,,,,1.0,,,,-0.2501415270881502,-1.0363515187528949,2.071000000000002,47.86733615133008,-76.41390503440005,1,0,50658.92099999999,178.447:285.0;,178.447:285.0;,,0.0,178.447;
87,2024-03-19 22:58:00,178.222,177.89,178.222,177.89,280012.0,49774592.0,1710860280,,,,,,,,,,,46.018515408307,-14.095868702534544,0.945285714285715,39.467364705773534,75.51052395617096,0,0,101452.19099999999,,,178.222:285.0;,-64.12499999999838,
135,2024-03-20 23:46:00,178.81,178.95,179.0,178.712,163022.0,29147648.0,1710949560,,,,,,,1.0,,1.0,,-1.420561315948504,-6.716192648527922,0.5561428571428634,12.101640015918989,-75.08344231867771,1,0,50848.96099999999,178.81:283.0;,178.81:283.0;,,0.0,178.81;
143,2024-03-20 23:54:00,178.11,177.974,178.18,177.939,343516.0,61118976.0,1710950040,,,,,,,,,,,-9.238898373348682,-7.89054945742005,0.5768571428571505,12.101640015918989,-76.40963850976227,0,0,101254.09099999999,,,178.11:283.0;,-198.09999999999678,
167,2024-03-21 00:18:00,176.263,176.01,176.3,176.01,270026.0,47522816.0,1710951480,,,,,1.0,,,,,,-3.636424223640507,-12.575823589203551,0.595000000000005,9.330798418831762,-74.06228557096293,1,0,50666.609999999986,176.263:287.0;,176.263:287.0;,,0.0,176.263;
172,2024-03-21 00:23:00,175.41,175.378,175.471,175.265,377614.0,66131968.0,1710951780,,,,,,,,,,,-2.930271514521809,-13.015536540880206,0.5897142857142877,9.330798418831762,-70.27047573705916,0,0,101009.27999999998,,,175.41:287.0;,-244.81100000000248,
16,2024-03-22 21:47:00,177.261,177.17,177.261,176.91,253075.0,44816512.0,1711115220,1.0,,,,,,,,,,11.169955472337875,3.523101844216981,0.7406428571428592,43.05166038445564,-74.16885644830546,1,0,50667.15599999999,177.261:284.0;,177.261:284.0;,,0.0,177.261;
20,2024-03-22 21:51:00,176.01,175.74,176.01,175.74,229659.0,40369152.0,1711115460,,,,,,,,,,,-1.007153913396536,0.079590407976525,0.8285714285714302,43.05166038445564,-77.73760601354175,0,0,100653.99599999998,,,176.01:284.0;,-355.28400000000136,
24,2024-03-22 21:55:00,175.8,176.06,176.06,175.8,237740.0,41796352.0,1711115700,,,,,,,,,1.0,,-4.261083190215835,-0.9905706277262568,0.8545000000000016,43.05166038445564,-77.82084897165103,1,0,50199.39599999998,175.8:287.0;,175.8:287.0;,,0.0,175.8;
41,2024-03-22 22:12:00,175.15,175.175,175.205,175.13,313057.0,54804736.0,1711116720,,,,,,,1.0,,,,0.3106044006518544,-5.253809539635824,0.963785714285712,39.515475369729984,-75.07943960718555,1,0,106.49599999997736,175.8:287.0;175.15:286.0;,175.15:286.0;,,0.0,176.286;175.15;
129,2024-03-22 23:40:00,177.453,177.464,177.47,177.41,104490.0,18528768.0,1711122000,,,,,,,,,,,91.09028100518302,39.89190368369279,0.5867142857142836,33.40268172739752,0.3330788501542251,0,0,101787.06499999997,,,177.453:287.0;177.453:286.0;,1133.0689999999968,
14,2024-03-26 21:45:00,177.68,177.79,177.895,177.68,240920.0,42833728.0,1711460700,1.0,,,,,,,,1.0,,18.30720048095975,-2.368302882834058,0.826357142857144,59.95829469772521,-71.88856694244821,1,0,50970.58499999997,177.68:286.0;,177.68:286.0;,,0.0,177.68;
24,2024-03-26 21:55:00,176.838,177.29,177.29,176.838,270743.0,47915776.0,1711461300,,,,,,,,,,,0.6840695304896656,-2.910523477844663,0.8822857142857146,59.95829469772521,-75.02669900401733,0,0,101546.25299999997,,,176.838:286.0;,-240.8120000000037,
5,2024-03-27 21:36:00,178.933,179.391,179.45,178.933,260198.0,46629024.0,1711546560,1.0,,,,,,,,,,51.6779422402437,-8.382952773848515,0.7522142857142862,68.10665950840648,82.96175073509336,1,0,50908.21399999997,178.933:283.0;,178.933:283.0;,,0.0,178.933;
12,2024-03-27 21:43:00,177.819,177.91,177.96,177.78,253275.0,45059520.0,1711546980,,,,,,,,,,,38.374751894638734,-6.725708343153386,0.8282857142857145,68.10665950840648,14.673110520000078,0,0,101230.99099999997,,,177.819:283.0;,-315.2620000000012,
34,2024-03-27 22:05:00,176.445,176.836,177.074,176.445,334928.0,59145216.0,1711548300,,,,,,,1.0,,1.0,,18.93508223690573,-2.526777277961642,1.2857142857142816,65.93417266229858,-76.76060102413716,1,0,50591.27599999997,176.445:287.0;,176.445:287.0;,,0.0,176.445;
122,2024-03-27 23:33:00,177.175,176.96,177.25,176.96,164850.0,29216768.0,1711553580,,,,,,,,,,,70.5883605302121,31.48290383475693,0.6095000000000071,59.4811293069783,48.09748795465937,0,0,101440.50099999997,,,177.175:287.0;,209.51000000000522,
11,2024-04-04 21:42:00,181.075,180.858,181.18,180.858,340971.0,61745088.0,1712238120,1.0,,,,,,,,,,57.4137287673924,9.513302307819744,0.7115714285714277,64.49015304402799,29.006307231592185,1,0,50739.500999999975,181.075:280.0;,181.075:280.0;,,0.0,181.075;
17,2024-04-04 21:48:00,179.985,180.33,180.33,179.94,383608.0,69073792.0,1712238480,,,,,,,,,,,28.66445508372593,6.019123498194247,0.7547142857142859,64.49015304402799,-69.65285522902744,0,0,101135.30099999998,,,179.985:280.0;,-305.199999999993,
31,2024-04-04 22:02:00,179.79,179.95,179.95,179.72,268703.0,48318976.0,1712239320,,,,,1.0,,,,,,-3.6295032607654103,-6.584556075408798,0.7707857142857141,63.20318049472737,-74.79765440525024,1,0,50434.52099999998,179.79:282.0;,179.79:282.0;,,0.0,179.79;
50,2024-04-04 22:21:00,178.81,178.91,179.05,178.81,186393.0,33360896.0,1712240460,,,,,,,,,,,-5.79589850389895,-16.417089372985075,0.8124285714285691,63.20318049472737,-76.06195276096886,0,0,100858.94099999998,,,178.81:282.0;,-276.3599999999971,
51,2024-04-04 22:22:00,178.92,179.025,179.025,178.92,86543.0,15491584.0,1712240520,,,,,,,1.0,,,,-4.999324994549262,-16.417089372985075,0.8124285714285691,63.20318049472737,-75.77933737616266,1,0,50224.580999999984,178.92:283.0;,178.92:283.0;,,0.0,178.92;
78,2024-04-04 22:49:00,178.52,178.08,178.52,178.08,300392.0,53586176.0,1712242140,,,,,,,,,,,26.159515409173714,-18.215515100295107,0.6332857142857132,61.62715916615204,-58.43033757606414,0,0,100745.74099999998,,,178.52:283.0;,-113.19999999999357,
80,2024-04-04 22:51:00,178.231,178.058,178.235,178.058,238204.0,42453248.0,1712242260,,,,,,,,,1.0,,19.97754877813264,-19.22595492569141,0.6075714285714265,61.62715916615204,-70.32590581213206,1,0,50128.13699999998,178.231:284.0;,178.231:284.0;,,0.0,178.231;
104,2024-04-04 23:15:00,177.56,177.58,177.657,177.56,165776.0,29415680.0,1712243700,,,,,,,,,,,4.947729677308633,-21.89171970111923,0.4957857142857104,58.15528478889253,-62.461303072199456,0,0,100555.17699999998,,,177.56:284.0;,-190.5639999999978,
287,2024-04-05 02:18:00,174.785,174.44,174.785,174.44,268716.0,46902272.0,1712254680,,,,,1.0,,,,,,3.531093653166661,-5.679597626397378,0.2725714285714267,35.87370811841496,-60.711706644946425,1,0,49867.52699999998,174.785:290.0;,174.785:290.0;,,0.0,174.785;
288,2024-04-05 02:19:00,174.21,174.03,174.21,174.03,522192.0,90856448.0,1712254740,,,,,,,,,,,1.93131902077549,-5.679597626397378,0.2725714285714267,35.87370811841496,-70.9792882118381,0,0,100388.42699999998,,,174.21:290.0;,-166.7499999999967,
306,2024-04-05 02:37:00,171.515,171.635,171.65,171.36,396932.0,68099072.0,1712255820,,,1.0,,,,,,,,0.4362627638838283,-5.350823137540012,0.5511428571428516,29.88020046244277,41.44879589891491,1,0,49791.501999999986,171.515:295.0;,171.515:295.0;,,0.0,171.515;
315,2024-04-05 02:46:00,170.548,170.952,171.01,170.548,263588.0,45022208.0,1712256360,,,,,,,,,,,5.924117536602495,-4.014276811100613,0.6748571428571394,29.88020046244277,-37.28460377678047,0,0,100103.16199999998,,,170.548:295.0;,-285.26499999999544,
9,2024-04-05 21:40:00,166.416,165.65,166.416,165.65,356175.0,59117312.0,1712324400,1.0,,,,,,,,1.0,,62.09269975344692,6.437300990801612,1.2772142857142836,-0.5337776976822681,70.22639743771833,1,0,50178.36199999999,166.416:300.0;,166.416:300.0;,,0.0,166.416;
23,2024-04-05 21:54:00,169.71,169.834,169.834,169.61,258972.0,43974656.0,1712325240,,,,,,,,,,1.0,117.79250787477226,16.46332020183685,1.4825714285714289,-0.5337776976822681,81.12665554081234,0,1,101091.362,,,169.71:300.0;,988.2000000000033,170.01;
6,2024-04-08 21:37:00,167.59,167.456,167.59,167.41,228810.0,38320480.0,1712583420,1.0,,,,,,,,,,10.752057429007436,-2.4457283029810526,0.6546428571428545,30.657945219298576,-68.54618300165595,1,0,50646.77199999999,167.59:301.0;,167.59:301.0;,,0.0,167.59;
33,2024-04-08 22:04:00,169.769,169.61,169.769,169.45,199404.0,33814400.0,1712585040,,1.0,,,,,,,,,57.04791201184661,-0.0698698235160293,0.9037142857142848,29.56057816075132,78.98334133426957,0,1,76281.89099999999,167.59:150.0;,,169.769:151;,329.02900000000034,169.79;
40,2024-04-08 22:11:00,170.585,170.66,170.72,170.58,337240.0,57536640.0,1712585460,,,,,,,,,,1.0,89.11739858428513,13.396847467280992,1.0219285714285686,29.56057816075132,77.59747066506992,0,1,101869.64099999999,,,170.585:150.0;,449.2500000000007,170.585;
217,2024-04-11 01:08:00,164.965,165.02,165.04,164.965,143796.0,23683584.0,1712768880,,,,,,,1.0,,,,36.41848749589204,-12.194755797951215,0.4401428571428596,23.33766552287893,-73.88412224140889,1,0,51060.42099999999,164.965:308.0;,164.965:308.0;,,0.0,164.965;
240,2024-04-11 01:31:00,165.145,165.37,165.403,165.145,179388.0,29608448.0,1712770260,,,,,,,,,,,53.41914589867673,-7.281590991995401,0.4706428571428611,20.698103680930828,79.58028847507943,0,0,101925.08099999999,,,165.145:308.0;,55.4400000000021,
201,2024-04-13 00:52:00,162.65,162.7,162.711,162.65,122152.0,19874304.0,1712940720,,,,,1.0,,,,,,-9.02047655610466,0.6413985427916913,0.4564285714285745,57.09077507780365,-75.6730701686504,1,0,51015.63099999999,162.65:313.0;,162.65:313.0;,,0.0,162.65;
237,2024-04-13 01:28:00,162.847,162.808,162.847,162.77,95444.0,15548928.0,1712942880,,,,,,,,,,,71.0342184074146,7.900141780599256,0.4163571428571413,50.660839383039246,-3.793979408021227,0,0,101986.742,,,162.847:313.0;,61.661000000000854,
86,2024-04-17 22:57:00,160.28,160.256,160.28,160.09,146690.0,23521536.0,1713365820,,,,,,,1.0,,1.0,,30.355264704297756,0.860878498858952,0.699928571428576,39.352191117724566,-74.59224803094747,1,0,51017.702,160.28:318.0;,160.28:318.0;,,0.0,160.28;
119,2024-04-17 23:30:00,160.63,160.372,160.63,160.372,103168.0,16570368.0,1713367800,,,,,,,,,,,39.58100427235276,-2.166064048603218,0.5924285714285743,31.84292912839451,14.420669085263324,0,0,102098.04199999999,,,160.63:318.0;,111.29999999999819,
161,2024-04-18 00:12:00,158.07,158.065,158.167,157.99,230228.0,36378112.0,1713370320,,,,,1.0,,,,,,-0.8803302962671111,-14.806339374418954,0.56407142857143,26.372293159074253,49.37263759807631,1,0,51199.501999999986,158.07:322.0;,158.07:322.0;,,0.0,158.07;
167,2024-04-18 00:18:00,157.25,157.04,157.25,156.97,330020.0,51865600.0,1713370680,,,,,,,,,,,2.527271856637949,-14.976350205106414,0.5164285714285727,26.372293159074253,-24.7671310427659,0,0,101834.00199999998,,,157.25:322.0;,-264.0399999999978,
334,2024-04-18 03:05:00,155.285,155.16,155.31,155.16,188736.0,29279232.0,1713380700,,,1.0,,,,,,,,13.167528991520328,7.421008269899708,0.5769285714285713,9.166379870143553,-77.20130407227592,1,0,50900.52199999998,155.285:328.0;,155.285:328.0;,,0.0,155.285;
358,2024-04-18 03:29:00,154.75,154.54,154.75,154.54,200520.0,31015936.0,1713382140,,,,,,,,,,,-7.986957810530896,4.847273333706127,0.5888571428571429,9.166379870143553,-76.55686328574402,0,0,101658.52199999998,,,154.75:328.0;,-175.47999999999888,
3,2024-04-18 21:34:00,155.798,155.21,155.798,155.21,345293.0,53706944.0,1713447240,1.0,,,,,,,,,,45.11968464278113,11.94078269738829,0.6491428571428567,-0.4818555438155272,76.20644419191413,1,0,50868.37399999998,155.798:326.0;,155.798:326.0;,,0.0,155.798;
6,2024-04-18 21:37:00,154.16,153.245,154.16,153.245,538465.0,82807488.0,1713447420,,,,,,,,,,,35.08661907543609,16.95270135617705,0.887357142857141,-0.4818555438155272,67.9599035662062,0,0,101124.53399999999,,,154.16:326.0;,-533.9880000000016,
8,2024-04-18 21:39:00,153.93,153.078,153.93,152.927,498435.0,76455040.0,1713447540,,,,,,,1.0,,1.0,,25.09851857449009,16.95270135617705,0.887357142857141,-0.4818555438155272,-43.06001069352514,1,0,50327.633999999984,153.93:330.0;,153.93:330.0;,,0.0,153.93;
43,2024-04-18 22:14:00,155.678,155.84,155.84,155.678,173546.0,27028224.0,1713449640,,1.0,,,,,,,,,54.93441606385235,37.62607023001297,1.3024285714285742,0.1460805554845592,71.294502250827,0,1,76014.50399999999,153.93:165.0;,,155.678:165;,288.4199999999984,155.93;
103,2024-04-18 23:14:00,156.27,156.28,156.29,156.22,130922.0,20464640.0,1713453240,,,,,,,,,,1.0,93.99874800639004,75.86442496293706,0.7267857142857171,4.935642570605907,43.32233875511809,0,1,101799.05399999999,,,156.27:165.0;,386.1000000000006,156.725;
111,2024-04-19 23:22:00,150.087,150.17,150.25,150.087,140322.0,21108224.0,1713540120,,,,,,,,,1.0,,4.270514590605757,4.354585145658525,0.6879285714285714,20.20684341523017,-70.09484823614564,1,0,50919.560999999994,150.087:339.0;,150.087:339.0;,,0.0,150.087;
119,2024-04-19 23:30:00,149.55,149.72,149.72,149.49,163760.0,24518656.0,1713540600,,,,,,,1.0,,,,-4.370951310058956,-0.5251911721827511,0.646642857142857,17.53279218582127,-74.98473917893031,1,0,72.56099999998696,150.087:339.0;149.55:340.0;,149.55:340.0;,,0.0,150.09;149.55;
142,2024-04-19 23:53:00,149.35,149.265,149.38,149.265,156626.0,23350272.0,1713541980,,,,,,,,,,,11.083685568848356,-5.380551913820568,0.5467142857142834,17.53279218582127,-48.69245423043652,0,0,50702.21099999999,149.55:340.0;,,149.35:339.0;,-249.84299999999823,149.95;
143,2024-04-19 23:54:00,149.216,149.26,149.27,149.165,172224.0,25677824.0,1713542040,,,,,,,,,,,9.689839571399425,-5.380551913820568,0.5467142857142834,17.53279218582127,-68.05034715207006,0,0,101435.65099999998,,,149.216:340.0;,-113.56000000000108,
338,2024-04-20 03:09:00,145.89,146.001,146.045,145.83,139980.0,20401152.0,1713553740,,,1.0,,,,,,,,9.126013694986778,4.695131965757582,0.6077857142857174,6.663166768538449,-53.353843698293645,1,0,50665.93099999999,145.89:348.0;,145.89:348.0;,,0.0,145.89;
371,2024-04-20 03:42:00,145.93,146.14,146.14,145.93,154784.0,22525952.0,1713555720,,,,,,,,,,,78.70235368225327,15.919982562774358,0.5425714285714308,5.947565177086297,42.476053427211006,0,0,101449.571,,,145.93:348.0;,13.920000000007121,
100,2024-04-24 23:11:00,151.8,151.79,151.87,151.77,150396.0,22843136.0,1713971460,,,,,1.0,,,,,,-5.150647679792012,2.5336188473148127,0.5703571428571479,89.93468341973791,-77.9319790036534,1,0,50748.37099999999,151.8:334.0;,151.8:334.0;,,0.0,151.8;
134,2024-04-24 23:45:00,151.54,151.31,151.54,151.31,182322.0,27627776.0,1713973500,,,,,,,,,,,48.4632907272265,-14.63231881543588,0.4819285714285745,88.56483840320982,4.925397443440942,0,0,101362.731,,,151.54:334.0;,-86.84000000000646,
9,2024-04-29 21:40:00,158.1,157.81,158.1,157.81,174941.0,27631872.0,1714398000,1.0,,,,,,,,1.0,,60.05161141164628,8.592885717362492,0.6587857142857091,98.52915223345629,-42.80542290235972,1,0,50770.731,158.1:320.0;,158.1:320.0;,,0.0,158.1;
13,2024-04-29 21:44:00,156.87,156.521,156.87,156.46,275281.0,43140928.0,1714398240,,,,,,,,,,,26.065306872830703,8.592885717362492,0.6587857142857091,98.52915223345629,-74.27512528239433,0,0,100969.131,,,156.87:320.0;,-393.5999999999967,
199,2024-05-01 00:50:00,159.14,159.11,159.14,159.03,135462.0,21553664.0,1714495800,,,,,1.0,,,,,,-14.541386372652212,19.3047990900742,0.3698571428571406,90.0947812961592,-76.98903043429017,1,0,50521.751,159.14:317.0;,159.14:317.0;,,0.0,159.14;
223,2024-05-01 01:14:00,159.399,159.43,159.505,159.399,56030.0,8921088.0,1714497240,,,,,,,,,,,50.45136551639767,10.454322984322175,0.3511428571428548,87.12446842282338,43.92203319548862,0,0,101051.234,,,159.399:317.0;,82.10300000000461,
88,2024-05-01 22:59:00,146.258,146.031,146.258,145.855,552206.0,80603136.0,1714575540,,,,,,,,,1.0,,17.507788371853692,11.965453357176358,1.0008571428571449,53.90060377734761,-74.41521812215171,1,0,50592.223999999995,146.258:345.0;,146.258:345.0;,,0.0,146.258;
96,2024-05-01 23:07:00,145.08,145.5,145.5,145.08,280368.0,40643584.0,1714576020,,,,,,,,,,,0.7962727135840311,6.704412820280297,0.8658571428571439,42.66464975195095,-78.21091874408054,0,0,100644.824,,,145.08:345.0;,-406.40999999999906,
97,2024-05-01 23:08:00,145.435,145.22,145.435,145.22,224664.0,32568320.0,1714576080,,,,,1.0,,1.0,,,,0.3437447301663852,6.704412820280297,0.8658571428571439,42.66464975195095,-75.20222762000463,1,0,50178.87899999999,145.435:347.0;,145.435:347.0;,,0.0,145.435;
105,2024-05-01 23:16:00,144.25,144.33,144.35,144.25,169064.0,24342016.0,1714576560,,,,,,,,,,,-7.086289804920071,0.4289400554337277,0.7779999999999997,42.66464975195095,-75.77129087900659,0,0,100233.62899999999,,,144.25:347.0;,-411.1950000000008,
308,2024-05-08 02:39:00,153.93,154.03,154.03,153.87,80104.0,12327424.0,1715107140,,,,,,,,,1.0,,6.951499288441013,-13.515952547371356,0.2822857142857101,103.95166966054865,-61.2566943086631,1,0,50206.378999999986,153.93:325.0;,153.93:325.0;,,0.0,153.93;
348,2024-05-08 03:19:00,154.02,154.035,154.06,154.015,66420.0,10230272.0,1715109540,,,,,,,,,,,85.68694023521091,-11.461449241669117,0.2470000000000039,101.51298382064556,63.45223496407081,0,0,100262.87899999999,,,154.02:325.0;,29.25000000000111,
380,2024-05-14 03:51:00,150.675,150.8,150.8,150.675,123710.0,18666496.0,1715629860,,,,,,,,,1.0,,-12.604885077758569,-8.675624606171084,0.2079285714285695,22.26875739343296,-76.51386075842751,1,0,100262.87899999999,,,,0.0,
381,2024-05-14 03:52:00,150.76,150.64,150.76,150.64,126136.0,19028224.0,1715629920,,,,,1.0,,,,,,-12.148184976108688,-8.675624606171084,0.2079285714285695,22.26875739343296,-70.50547147479061,1,0,100262.87899999999,,,,0.0,
7,2024-05-14 21:38:00,149.295,148.895,149.295,148.895,213757.0,31882944.0,1715693880,1.0,,,,,,,,,,8.254220372353487,-9.92521609504736,0.361142857142858,24.36921900308965,-63.1374186238229,1,0,50249.05399999999,149.295:335.0;,149.295:335.0;,,0.0,149.295;
14,2024-05-14 21:45:00,150.533,150.775,150.86,150.515,357604.0,53870336.0,1715694300,,1.0,,,,,,,,,37.70913571784277,-3.689273393128829,0.5016428571428568,24.36921900308965,81.5051140892416,0,1,75538.59799999998,149.295:167.0;,,150.533:168;,207.98399999999992,150.533;
24,2024-05-14 21:55:00,151.63,151.64,151.64,151.535,123710.0,18751936.0,1715694900,,,,,,,,,,1.0,112.63947896430244,17.94563004237918,0.5760714285714263,24.36921900308965,81.47586715108685,0,1,100860.80799999999,,,151.63:167.0;,389.9450000000013,151.72;
379,2024-05-17 03:50:00,162.965,162.825,162.965,162.825,96432.0,15737856.0,1715889000,,,,,,,,,1.0,,-15.256871274658366,-24.730046853715592,0.3172142857142859,103.38611292889856,-76.68764558168851,1,0,100860.80799999999,,,,0.0,
6,2024-05-17 21:37:00,167.56,168.544,168.647,167.56,1027938.0,172952448.0,1715953020,1.0,,,,,,,,,,63.96716472391943,-11.992767467641698,0.9095714285714313,84.69669870137412,82.34037486081291,1,0,50592.80799999999,167.56:300.0;,167.56:300.0;,,0.0,167.56;
9,2024-05-17 21:40:00,168.55,168.96,169.069,168.55,468346.0,79066624.0,1715953200,,1.0,,,,,,,,,84.89699637965151,3.264161630202437,1.1083571428571466,84.69669870137412,81.67612948907941,0,1,75875.30799999999,167.56:150.0;,,168.55:150;,148.50000000000136,169.14;
14,2024-05-17 21:45:00,167.14,167.145,167.145,166.779,373513.0,62353408.0,1715953500,,,,,,,,,,,93.95677216826012,12.508855824098347,1.2517142857142918,84.69669870137412,73.25804478181881,0,0,100946.30799999999,,,167.14:150.0;,-63.00000000000239,
19,2024-05-17 21:50:00,165.894,165.66,165.894,165.66,299480.0,49701632.0,1715953800,,,,,,,,,1.0,,81.59014458049073,17.17891265287078,1.3493571428571485,84.69669870137412,36.05505541475474,1,0,50680.425999999985,165.894:303.0;,165.894:303.0;,,0.0,165.894;
95,2024-05-17 23:06:00,166.444,166.544,166.672,166.444,182680.0,30445568.0,1715958360,,,,,,,,,,,84.92554950293803,66.79210409599705,0.800928571428573,83.85026558450437,38.840345991893,0,0,101112.95799999998,,,166.444:303.0;,166.64999999999483,
276,2024-05-18 02:07:00,163.23,163.26,163.313,163.221,102928.0,16805376.0,1715969220,,,,,1.0,,,,,,-0.6840882117418055,-6.700545706339483,0.3198571428571455,75.18137250287077,-63.36431509081287,1,0,50838.11799999999,163.23:308.0;,163.23:308.0;,,0.0,163.23;
282,2024-05-18 02:13:00,162.87,162.89,162.91,162.86,109720.0,17862656.0,1715969580,,,,,,,,,,,0.1868077593203025,-8.48686053136943,0.3290000000000016,75.18137250287077,-54.147356066888825,0,0,101002.07799999998,,,162.87:308.0;,-110.87999999999545,
18,2024-05-21 21:49:00,163.65,163.63,163.65,163.305,161026.0,26332736.0,1716299340,1.0,,,,,,,,,,5.903202299365731,-4.540533463763055,0.6037142857142855,75.9047648570774,-68.09919273367538,1,0,50597.877999999975,163.65:308.0;,163.65:308.0;,,0.0,163.65;
102,2024-05-21 23:13:00,164.315,164.3,164.335,164.275,38406.0,6322176.0,1716304380,,,,,,,,,,,74.8543253944477,18.19828702448647,0.4082142857142879,62.69974246195824,43.031531161932136,0,0,101206.89799999997,,,164.315:308.0;,204.81999999999755,
293,2024-05-23 02:24:00,164.59,164.565,164.63,164.54,83564.0,13732864.0,1716402240,,,,,,,1.0,,,,37.142764211302605,-5.303360251163284,0.4549999999999962,46.06254218148581,-32.34800857557067,1,0,50677.76799999997,164.59:307.0;,164.59:307.0;,,0.0,164.59;
298,2024-05-23 02:29:00,163.92,164.04,164.04,163.92,154880.0,25363456.0,1716402540,,,,,,,,,,,23.264300060081567,-6.789136178807453,0.4915714285714228,46.06254218148581,-70.77243375078116,0,0,101001.20799999996,,,163.92:307.0;,-205.6900000000049,
87,2024-05-23 22:58:00,160.794,160.936,160.936,160.75,265084.0,42547712.0,1716476280,,,,,1.0,,,,,,-7.797096008912383,13.502734677276711,1.3486428571428573,39.8685852545137,-77.39637833893575,1,0,50511.89199999995,160.794:314.0;,160.794:314.0;,,0.0,160.794;
162,2024-05-24 00:13:00,163.18,163.33,163.33,163.13,163628.0,26701824.0,1716480780,,,,,,,,,,,47.14367453185886,20.50507694277031,0.692142857142853,25.75719714480752,27.28397300442777,0,0,101750.41199999995,,,163.18:314.0;,749.2039999999986,
18,2024-05-28 21:49:00,165.88,165.72,165.88,165.638,295864.0,49023872.0,1716904140,,,,,,,1.0,,1.0,,9.499247028437791,19.811586636000385,0.7898571428571444,58.90517358572834,-75.03676507354503,1,0,50991.131999999954,165.88:306.0;,165.88:306.0;,,0.0,165.88;
20,2024-05-28 21:51:00,165.98,166.4,166.447,165.98,334023.0,55540352.0,1716904260,,,,,1.0,,,,,,10.552847267769906,16.18950680102145,0.8489285714285748,58.90517358572834,-69.32893278902493,1,0,201.25199999995675,165.88:306.0;165.98:306.0;,165.98:306.0;,,0.0,165.98;165.98;
45,2024-05-28 22:16:00,168.19,168.02,168.32,167.982,211284.0,35551744.0,1716905760,,1.0,,,,,,,,,64.50423000051438,25.86739248067539,1.0454285714285712,61.11560735619808,70.69967224053735,0,1,51667.391999999956,165.88:153.0;165.98:153.0;,,168.19:153;168.19:153;,691.5600000000015,168.305;168.305;
58,2024-05-28 22:29:00,169.285,169.07,169.337,169.07,221047.0,37420800.0,1716906540,,,,,,,,,,1.0,117.44703248628282,37.51793264617339,1.0962857142857112,61.11560735619808,70.18615351313038,0,1,103468.60199999996,,,169.285:153.0;169.285:153.0;,1026.6300000000012,169.533;169.533;
8,2024-05-29 21:39:00,165.69,166.4,166.4,165.69,441460.0,73326272.0,1716989940,1.0,,,,,,,,1.0,,-8.273998940048116,-3.307914463256026,0.932071428571429,94.90902332517976,-76.91351018160897,1,0,51773.32199999996,165.69:312.0;,165.69:312.0;,,0.0,165.69;
13,2024-05-29 21:44:00,164.553,164.44,164.553,164.31,503438.0,82786944.0,1716990240,,,,,,,,,,,-14.183086592440468,-6.429300448459003,0.974642857142858,94.90902332517976,-77.06746973797682,0,0,103113.85799999995,,,164.553:312.0;,-354.74400000000014,
20,2024-05-29 21:51:00,163.44,163.7,163.7,163.44,350295.0,57319680.0,1716990660,,,,,,,1.0,,,,-16.91686178640498,-13.35092510299107,1.1293571428571454,94.90902332517976,-78.05724035243256,1,0,51466.81799999995,163.44:316.0;,163.44:316.0;,,0.0,163.44;
22,2024-05-29 21:53:00,163.757,164.02,164.1,163.73,557841.0,91421184.0,1716990780,,,,,1.0,,,,,,-14.693847730989916,-13.35092510299107,1.1293571428571454,94.90902332517976,-76.13190064132637,1,0,47.11999999994441,163.44:316.0;163.757:314.0;,163.757:314.0;,,0.0,163.757;163.757;
104,2024-05-29 23:15:00,166.15,166.078,166.164,166.078,101648.0,16835072.0,1716995700,,1.0,,,,,,,,,100.54012658160048,4.236823106267721,0.5640714285714259,74.3720294114772,67.50799742818091,0,1,52384.369999999944,163.44:158.0;163.757:157.0;,,166.15:158;166.15:157;,803.8810000000014,166.3;166.3;
129,2024-05-29 23:40:00,166.01,165.93,166.01,165.89,131114.0,21706240.0,1716997200,,,,,,,,,,,63.31158888615903,16.9516625166723,0.4777857142857097,70.96504664347734,-10.46050381112411,0,0,104677.51999999993,,,166.01:158.0;166.01:157.0;,759.7809999999968,
96,2024-05-31 23:07:00,162.83,162.85,162.88,162.78,91990.0,14994432.0,1717168020,,,,,,,1.0,,,,-2.032962571923868,-0.1041138900888682,1.000071428571429,25.568546070314028,-74.80858037874265,1,0,52409.089999999924,162.83:321.0;,162.83:321.0;,,0.0,162.83;
121,2024-05-31 23:32:00,161.87,162.16,162.16,161.87,133634.0,21663232.0,1717169520,,,,,,,,,,,8.613440794825326,-14.908407097908182,0.6987142857142865,19.70058367392116,-70.29006390162864,0,0,104369.35999999993,,,161.87:321.0;,-308.1600000000026,
164,2024-06-01 00:15:00,161.06,160.955,161.07,160.955,58792.0,9447936.0,1717172100,,,1.0,,,,,,,,13.347060451437065,-22.936733019804755,0.5057857142857115,13.990698362753037,-17.256953647542563,1,0,52185.919999999925,161.06:324.0;,161.06:324.0;,,0.0,161.06;
172,2024-06-01 00:23:00,160.35,160.26,160.35,160.225,100334.0,16081920.0,1717172580,,,,,,,,,,,3.914123354354764,-23.044753177573146,0.529999999999997,13.990698362753037,-70.15619600120866,0,0,104139.31999999992,,,160.35:324.0;,-230.04000000000258,
166,2024-06-04 00:17:00,161.46,161.75,161.75,161.46,325540.0,52661760.0,1717431420,,,,,1.0,,,,,,-19.11484352638104,-3.372973321026137,0.6577857142857206,21.693208473837387,-77.80414576121626,1,0,52149.19999999992,161.46:322.0;,161.46:322.0;,,0.0,161.46;
186,2024-06-04 00:37:00,160.95,161.5,161.5,160.95,159796.0,25752576.0,1717432620,,,,,,,,,,,-5.877561882062679,-13.094590527462472,0.7083571428571511,18.769037007803107,-76.86616516044826,0,0,103975.09999999992,,,160.95:322.0;,-164.22000000000622,
126,2024-06-04 23:37:00,160.42,160.31,160.47,160.31,70784.0,11374080.0,1717515420,,,,,,,1.0,,,,-12.17617019501629,14.409061358232876,0.5832142857142851,25.892353391188717,-76.2752625378725,1,0,51999.019999999924,160.42:324.0;,160.42:324.0;,,0.0,160.42;
169,2024-06-05 00:20:00,160.1,160.1,160.115,160.06,97694.0,15670272.0,1717518000,,,,,,,,,,,30.62763665890614,0.2566993219355638,0.4807142857142809,22.61168646199457,-62.41655997283505,0,0,103871.41999999993,,,160.1:324.0;,-103.67999999999779,
20,2024-06-10 21:51:00,160.7,160.935,160.935,160.65,285114.0,45837696.0,1718027460,1.0,,,,,,,,,,-24.35428487984258,9.188634914263687,1.0064285714285697,91.33516961814624,-78.25960016876667,1,0,51965.31999999993,160.7:323.0;,160.7:323.0;,,0.0,160.7;
34,2024-06-10 22:05:00,162.36,162.38,162.38,162.29,201384.0,32684288.0,1718028300,,1.0,,,,,,,,,2.047115998759857,5.037760406875265,1.0904285714285729,81.09646351599912,15.339939278583948,0,1,78267.63999999993,160.7:161.0;,,162.36:162;,268.92000000000405,162.36;
54,2024-06-10 22:25:00,163.567,163.65,163.65,163.567,145380.0,23798528.0,1718029500,,,,,,,,,,1.0,106.66678742134148,12.395766845900866,1.2177857142857127,81.09646351599912,66.82319791805223,0,1,104601.92699999992,,,163.567:161.0;,461.587000000003,163.74;
247,2024-06-11 01:38:00,160.918,160.87,160.918,160.81,78600.0,12612608.0,1718041080,,,,,,,,,1.0,,0.8605595520648066,14.163264261327503,0.4199285714285748,33.50586437685445,-76.79583546776425,1,0,52786.33099999992,160.918:322.0;,160.918:322.0;,,0.0,160.918;
275,2024-06-11 02:06:00,161.064,160.88,161.09,160.88,167584.0,26931712.0,1718042760,,,,,,,,,,,52.73057209139908,7.507744111480903,0.4351428571428621,26.52507485145202,20.3224285320308,0,0,104648.93899999993,,,161.064:322.0;,47.01199999999568,
11,2024-06-11 21:42:00,158.84,159.16,159.16,158.84,259089.0,41178560.0,1718113320,1.0,,,,,,,,1.0,,28.376462614745307,13.2301488124903,0.6478571428571444,-6.803255848645449,-71.11840527690977,1,0,52390.578999999925,158.84:329.0;,158.84:329.0;,,0.0,158.84;
23,2024-06-11 21:54:00,158.577,158.397,158.577,158.397,221165.0,35049088.0,1718114040,,,,,,,,,,,23.80787186881558,16.517291117486614,0.7607857142857191,-6.803255848645449,-63.09238095895198,0,0,104562.41199999992,,,158.577:329.0;,-86.52700000000172,
31,2024-06-11 22:02:00,157.74,158.04,158.04,157.74,252934.0,39888000.0,1718114520,,,,,,,1.0,,,,2.5241696098220245,10.520683133269335,0.896642857142859,-11.93845833240522,-76.05731670853959,1,0,52350.47199999992,157.74:331.0;,157.74:331.0;,,0.0,157.74;
92,2024-06-11 23:03:00,158.09,158.09,158.16,158.09,106356.0,16840448.0,1718118180,,,,,,,,,,,38.84648467849124,35.41301049443845,0.7606428571428572,-16.444559729098273,-6.1926122902054574,0,0,104678.26199999993,,,158.09:331.0;,115.84999999999812,
363,2024-06-13 03:34:00,158.901,159.02,159.02,158.901,61064.0,9683968.0,1718220840,,,,,,,,,1.0,,20.126281535324736,10.803909497349863,0.609571428571426,29.108436563045014,-75.61982930246424,1,0,104678.26199999993,,,,0.0,
165,2024-06-19 00:16:00,153.79,153.858,153.905,153.71,146294.0,22507008.0,1718727360,,,,,,,,,1.0,,52.96290623200804,-15.738103443522904,0.4379285714285694,27.37807791156221,-66.48203507650413,1,0,52389.66199999993,153.79:340.0;,153.79:340.0;,,0.0,153.79;
216,2024-06-19 01:07:00,154.61,154.58,154.65,154.58,65964.0,10186240.0,1718730420,,,,,,,,,,,96.29174724169894,5.90593701277303,0.4057142857142882,23.66695864120711,15.978590990607946,0,0,104957.06199999993,,,154.61:340.0;,278.80000000000734,
9,2024-06-24 21:40:00,158.971,159.265,159.265,158.9,190286.0,30268928.0,1719236400,1.0,,,,,,,,,,14.889527672986787,4.632244725434262,0.5810000000000011,55.6049010180123,-73.92919649449895,1,0,52496.63199999993,158.971:330.0;,158.971:330.0;,,0.0,158.971;
20,2024-06-24 21:51:00,158.28,158.855,158.87,158.28,283482.0,44932864.0,1719237060,,,,,,,,,,,-9.46557449799839,1.874017167382533,0.6964285714285755,55.6049010180123,-76.57878435436274,0,0,104729.03199999993,,,158.28:330.0;,-228.03000000000083,
21,2024-06-25 21:52:00,156.98,156.86,157.04,156.807,228435.0,35850368.0,1719323520,,,,,,,1.0,,,,-15.431900152302518,14.47289862804834,0.890500000000001,54.60294408541935,-75.37235157265643,1,0,52454.69199999994,156.98:333.0;,156.98:333.0;,,0.0,156.98;
61,2024-06-25 22:32:00,158.43,158.45,158.45,158.321,101880.0,16151808.0,1719325920,,1.0,,,,,,,,,114.88429261054868,10.759508650048303,1.0422857142857131,46.27900841105571,71.15369418340562,0,1,78912.50199999993,156.98:166.0;,,158.43:167;,242.15000000000285,158.61;
121,2024-06-25 23:32:00,159.52,159.633,159.633,159.52,89876.0,14355200.0,1719329520,,,,,,,,,,1.0,108.06301324814164,32.35940484574628,0.432071428571427,42.539552710618494,33.88972603888646,0,1,105392.82199999994,,,159.52:166.0;,421.6400000000034,159.59;
94,2024-06-26 23:05:00,157.48,157.47,157.5,157.47,68698.0,10811520.0,1719414300,,,,,,,1.0,,1.0,,-0.1782969224751411,9.419052376542908,0.5589285714285747,22.57191770818274,-75.50906128192949,1,0,52794.50199999994,157.48:334.0;,157.48:334.0;,,0.0,157.48;
103,2024-06-26 23:14:00,156.96,156.9,156.995,156.865,114047.0,17899392.0,1719414840,,,,,1.0,,,,,,-6.84493894453697,3.832691486080705,0.5310000000000039,22.57191770818274,-77.6441061321817,1,0,212.90199999993638,157.48:334.0;156.96:335.0;,156.96:335.0;,,0.0,157.52;156.96;
117,2024-06-26 23:28:00,156.81,156.91,156.925,156.81,88212.0,13849088.0,1719415680,,,,,,,,,,,12.48883118829128,-5.903081702928105,0.5266428571428605,22.57191770818274,-60.791826701431226,0,0,52587.44199999994,156.96:335.0;,,156.81:334.0;,-223.77999999999582,157.405;
122,2024-06-26 23:33:00,156.716,156.67,156.74,156.67,121757.0,19090176.0,1719415980,,,,,,,,,,,5.16528273076343,-9.055492780007825,0.5080714285714326,16.618785186730634,-74.67694237265151,0,0,105087.30199999994,,,156.716:335.0;,-81.73999999999992,
365,2024-06-29 03:36:00,160.98,160.925,161.117,160.925,152068.0,24456704.0,1719603360,,,,,1.0,,,,,,7.834002431980856,9.393261629740564,0.3252142857142875,84.11985093910631,-64.77415693152469,1,0,105087.30199999994,,,,0.0,
16,2024-07-01 21:47:00,157.245,156.415,157.245,156.415,386072.0,60497664.0,1719841620,,,,,,,,,1.0,,-9.779875204581671,15.797339818960552,0.9756428571428544,77.24452708159124,-78.58650647500113,1,0,52567.471999999936,157.245:334.0;,157.245:334.0;,,0.0,157.245;
18,2024-07-01 21:49:00,155.63,155.33,155.815,155.28,465130.0,72327104.0,1719841740,,,,,,,,,,,-14.00635222974502,15.797339818960552,0.9756428571428544,77.24452708159124,-78.92867859951193,0,0,104547.89199999993,,,155.63:334.0;,-539.410000000003,
20,2024-07-01 21:51:00,155.248,155.12,155.248,154.995,402870.0,62441728.0,1719841860,,,,,,,1.0,,,,-16.68273213331227,11.223671343017571,1.094785714285712,77.24452708159124,-78.92297134146295,1,0,52074.06799999994,155.248:338.0;,155.248:338.0;,,0.0,155.248;
27,2024-07-01 21:58:00,155.29,155.6,155.655,155.155,305647.0,47472128.0,1719842280,,,,,1.0,,,,,,-14.936131142606284,7.655265819362924,1.152714285714282,77.24452708159124,-75.38932119652834,1,0,51.917999999946915,155.248:338.0;155.29:335.0;,155.29:335.0;,,0.0,155.315;155.29;
41,2024-07-01 22:12:00,154.206,154.34,154.34,154.206,231167.0,35649792.0,1719843120,,,,,,,,,,,-4.845202978449457,2.590184678571191,1.2837857142857112,67.04011727682368,-70.47975629405462,0,0,103832.55599999994,,,154.206:338.0;154.206:335.0;,-715.3360000000016,
145,2024-07-11 23:56:00,177.98,177.9,177.98,177.805,98168.0,17437696.0,1720713360,,,1.0,,,,,,,,-3.39187084586888,-5.449603384290391,1.1190000000000018,67.60049461213723,-68.7309369474214,1,0,52040.37599999994,177.98:291.0;,177.98:291.0;,,0.0,177.98;
197,2024-07-12 00:48:00,178.75,178.37,178.75,178.37,83712.0,14932992.0,1720716480,,,,,,,,,,,83.40093196269547,4.615274903399879,0.6994285714285736,58.258136510220936,66.59163665684187,0,0,104056.62599999993,,,178.75:291.0;,224.07000000000298,
278,2024-07-18 02:09:00,161.5,161.821,161.955,161.5,191356.0,30965248.0,1721239740,,,1.0,,,,,,,,-13.849712452508044,12.967614312060132,0.471428571428571,-12.464276384906997,-75.73678781470821,1,0,52053.62599999993,161.5:322.0;,161.5:322.0;,,0.0,161.5;
305,2024-07-18 02:36:00,161.83,162.01,162.01,161.83,102580.0,16613376.0,1721241360,,,,,,,,,,,43.30448748876266,17.46233423196401,0.4928571428571452,-13.092470010503677,-52.57860122571915,0,0,104162.88599999994,,,161.83:322.0;,106.26000000000403,
6,2024-07-18 21:37:00,161.83,161.832,162.03,161.66,249412.0,40368576.0,1721309820,1.0,,,,,,,,,,44.78303280209055,15.44708415906467,1.0475714285714264,3.82604992862753,76.4323588223433,1,0,52215.45599999993,161.83:321.0;,161.83:321.0;,,0.0,161.83;
14,2024-07-18 21:45:00,160.28,160.66,160.795,160.192,296282.0,47567488.0,1721310300,,,,,,,,,,,40.95862775133057,24.119103958894605,1.1409999999999971,3.82604992862753,-4.70598317597568,0,0,103665.33599999992,,,160.28:321.0;,-497.55000000000365,
68,2024-07-18 22:39:00,157.125,156.995,157.16,156.92,273836.0,43013888.0,1721313540,,,,,1.0,,,,,,-7.187790223049635,11.562565248178174,1.3259285714285685,2.67911346693349,-76.31618097511057,1,0,51656.96099999992,157.125:331.0;,157.125:331.0;,,0.0,157.125;
72,2024-07-18 22:43:00,155.54,155.35,155.54,155.35,423956.0,65955072.0,1721313780,,,,,,,,,,,-6.441784790056882,10.824986348650429,1.1969999999999967,2.67911346693349,-75.38176506459409,0,0,103140.70099999991,,,155.54:331.0;,-524.6350000000026,
106,2024-07-18 23:17:00,155.15,155.13,155.15,154.73,425684.0,65962496.0,1721315820,,,1.0,,,,,,,,16.16183647531801,9.42992237133802,1.040142857142852,2.7170997706338422,-75.64323685795499,1,0,51165.45099999991,155.15:335.0;,155.15:335.0;,,0.0,155.15;
118,2024-07-18 23:29:00,153.775,153.369,153.775,153.369,305532.0,46888448.0,1721316540,,,,,,,,,,,-3.0541315010362027,5.4327036477287365,1.0165714285714225,2.7170997706338422,-78.2174787995422,0,0,102680.07599999991,,,153.775:335.0;,-460.625,
61,2024-07-19 22:32:00,152.72,152.55,152.759,152.55,145812.0,22255488.0,1721399520,,,,,,,,,1.0,,8.573400101086925,16.70147199449366,1.199714285714285,5.989826815535635,-74.63207580575248,1,0,51366.155999999915,152.72:336.0;,152.72:336.0;,,0.0,152.72;
65,2024-07-19 22:36:00,152.269,152.533,152.533,152.19,194157.0,29570944.0,1721399760,,,,,,,1.0,,,,3.3873054150476065,12.76625468072912,1.1495714285714282,5.989826815535635,-77.53412561409571,1,0,51.50299999991694,152.72:336.0;152.269:337.0;,152.269:337.0;,,0.0,152.72;152.269;
118,2024-07-19 23:29:00,152.655,152.5,152.66,152.5,151664.0,23199488.0,1721402940,,,,,,,,,,,52.12808751275864,19.287562747628883,0.7082142857142851,6.028774930347569,-2.626854478186432,0,0,102788.31799999991,,,152.655:336.0;152.655:337.0;,108.24199999999931,
298,2024-07-24 02:29:00,154.61,154.495,154.61,154.47,43544.0,6730752.0,1721759340,1.0,,,,,,,,,,21.7373499302131,6.406617026855926,0.2506428571428561,60.963598595280914,-74.82791153383756,1,0,51457.79799999991,154.61:332.0;,154.61:332.0;,,0.0,154.61;
318,2024-07-24 02:49:00,154.53,154.51,154.54,154.49,60604.0,9361152.0,1721760540,,,,,,,,,,,12.64583961108795,-4.532521556413414,0.2501428571428598,64.9375813438343,-59.06988466301155,0,0,102761.75799999991,,,154.53:332.0;,-26.560000000004152,
11,2024-07-24 21:42:00,151.54,151.42,151.648,151.321,165677.0,25090432.0,1721828520,1.0,,,,,,,,,,14.49213739697305,3.956526530048066,0.7528571428571463,68.28035227557146,-65.59748968775754,1,0,51389.69799999992,151.54:339.0;,151.54:339.0;,,0.0,151.54;
23,2024-07-24 21:54:00,151.175,151.17,151.29,151.17,181294.0,27409280.0,1721829240,,,,,,,,,,,5.07487999361377,4.023713943930716,0.8375714285714325,68.28035227557146,-63.529188207319,0,0,102638.02299999993,,,151.175:339.0;,-123.73499999999345,
31,2024-07-24 22:02:00,150.305,150.125,150.495,150.125,179608.0,26992768.0,1721829720,,,,,,,1.0,,1.0,,-7.894469836275739,-1.5640333017841002,0.9779285714285736,58.7920194323272,-77.55047082150969,1,0,51384.01799999992,150.305:341.0;,150.305:341.0;,,0.0,150.305;
69,2024-07-24 22:40:00,149.54,149.08,149.54,149.08,294660.0,43963392.0,1721832000,,,,,,,,,,,5.069825095925115,-6.936998129502804,0.9964285714285728,51.36236853894768,-69.62910680704002,0,0,102377.15799999992,,,149.54:341.0;,-260.865000000005,
159,2024-07-25 00:10:00,147.28,147.33,147.41,147.28,105396.0,15553280.0,1721837400,,,,,1.0,,,,,,-17.196802832587068,-2.4170701332798146,0.4577857142857137,33.96719414029114,-76.08301662384007,1,0,51123.71799999992,147.28:348.0;,147.28:348.0;,,0.0,147.28;
176,2024-07-25 00:27:00,147.09,147.22,147.22,147.051,74104.0,10896640.0,1721838420,,,,,,,,,,,2.390482463440108,-2.372045694091849,0.4592142857142858,33.96719414029114,-60.96176900814592,0,0,102311.03799999991,,,147.09:348.0;,-66.11999999999921,
8,2024-07-25 21:39:00,142.99,142.988,143.235,142.65,173300.0,24769600.0,1721914740,1.0,,,,,,,,1.0,,7.524112510325594,16.738370146249924,0.8048571428571469,-2.561836326362254,-71.43278995958653,1,0,51263.60799999991,142.99:357.0;,142.99:357.0;,,0.0,142.99;
14,2024-07-25 21:45:00,142.012,142.09,142.13,142.012,331547.0,47125312.0,1721915100,,,,,,,,,,,2.7667038663450683,13.04940233894721,0.9721428571428622,-2.561836326362254,-59.05552260643251,0,0,101961.8919999999,,,142.012:357.0;,-349.1460000000031,
35,2024-07-25 22:06:00,139.11,139.333,139.6,139.11,312876.0,43604224.0,1721916360,,,,,,,1.0,,,,-11.89967664388951,7.852131558435211,1.2866428571428574,-4.971984588602325,-76.45176486441743,1,0,50908.5219999999,139.11:367.0;,139.11:367.0;,,0.0,139.11;
44,2024-07-25 22:15:00,137.18,137.96,137.96,137.18,334471.0,45963264.0,1721916900,,,,,,,,,,,-9.123820763757225,6.899552247335254,1.4314285714285688,-4.971984588602325,-77.96928007958884,0,0,101253.58199999991,,,137.18:367.0;,-708.3100000000024,
21,2024-07-26 21:52:00,139.64,139.76,139.8,139.43,174746.0,24394240.0,1722001920,1.0,,,,,,,,,,49.42080764569842,19.054677642570653,1.2789285714285756,23.81582307440104,-15.308450098823045,1,0,50703.901999999915,139.64:362.0;,139.64:362.0;,,0.0,139.64;
36,2024-07-26 22:07:00,138.85,138.78,138.85,138.615,244799.0,33954944.0,1722002820,,,,,,,,,,,50.19037831190301,28.126567621572264,1.3987142857142911,24.27833988403983,-33.230136623836096,0,0,100967.60199999991,,,138.85:362.0;,-285.9799999999971,
98,2024-07-30 23:09:00,136.8,136.446,136.8,136.36,255538.0,34898176.0,1722352140,,,,,1.0,,1.0,,,,-15.550619789743417,16.45991380829689,0.8321428571428575,28.95393159043964,-76.50196855649584,1,0,50488.40199999991,136.8:369.0;,136.8:369.0;,,0.0,136.8;
128,2024-07-30 23:39:00,136.05,136.07,136.2,135.99,238320.0,32479744.0,1722353940,,,,,,,,,,,7.161397669161218,4.804161691121735,0.7544285714285702,25.943538823265705,-71.46075527479357,0,0,100690.85199999991,,,136.05:369.0;,-276.75,
252,2024-08-02 01:43:00,132.83,132.56,132.83,132.56,280500.0,37234176.0,1722534180,,,,,1.0,,,,,,-0.7238809394418286,-9.542762393578135,0.6176428571428586,31.38283666891641,0.042620560963626,1,0,50348.281999999905,132.83:379.0;,132.83:379.0;,,0.0,132.83;
280,2024-08-02 02:11:00,132.7,132.78,132.78,132.7,154240.0,20453376.0,1722535860,,,,,,,,,,,43.82755764892581,-2.4686907013907167,0.5965000000000019,26.882515980754576,37.44044096198552,0,0,100641.58199999991,,,132.7:379.0;,-49.27000000000905,
263,2024-08-03 01:54:00,132.3,132.19,132.38,132.19,54336.0,7192064.0,1722621240,,,,,,,1.0,,,,-2.430965455891624,15.76559901740859,0.709071428571426,3.386670233325887,-68.41810220143654,1,0,50367.5819999999,132.3:380.0;,132.3:380.0;,,0.0,132.3;
307,2024-08-03 02:38:00,133.18,133.18,133.35,133.175,103264.0,13771264.0,1722623880,,,,,,,,,,,103.25441959069916,7.70618693171231,0.5302857142857148,3.3544381708526174,60.39434289144198,0,0,100975.9819999999,,,133.18:380.0;,334.3999999999983,
9,2024-08-06 21:40:00,132.13,132.08,132.13,131.84,375035.0,49494912.0,1722951600,1.0,,,,,,,,1.0,,-4.661480655157305,-19.268908397673712,1.3370714285714322,67.86145132625421,-76.84503897816757,1,0,50502.321999999906,132.13:382.0;,132.13:382.0;,,0.0,132.13;
11,2024-08-06 21:42:00,130.5,130.48,130.563,130.335,542694.0,70805056.0,1722951720,,,,,,,,,,,-8.869626895890967,-19.268908397673712,1.3370714285714322,67.86145132625421,-77.14361160840686,0,0,100353.3219999999,,,130.5:382.0;,-622.6599999999983,
14,2024-08-06 21:45:00,129.775,130.346,130.346,129.775,448001.0,58282560.0,1722951900,,,,,,,1.0,,,,-10.137162556213568,-19.074889885956253,1.4995714285714346,67.86145132625421,-76.7599780774415,1,0,49870.84699999989,129.775:389.0;,129.775:389.0;,,0.0,129.775;
29,2024-08-06 22:00:00,132.788,132.67,132.788,132.38,214754.0,28467584.0,1722952800,,1.0,,,,,,,,,27.94254810893469,-7.049753002872407,1.642071428571435,68.20610582071029,75.0904038652774,0,1,75764.5069999999,129.775:194.0;,,132.788:195;,587.535000000001,133.05;
40,2024-08-06 22:11:00,133.46,133.62,133.62,133.24,307541.0,41011200.0,1722953460,,,,,,,,,,1.0,45.416563629744815,2.480052960079675,1.7210000000000056,68.20610582071029,71.79450464776079,0,1,101655.7469999999,,,133.46:194.0;,714.8900000000004,133.835;
383,2024-08-08 03:54:00,129.48,129.43,129.635,129.372,195904.0,25381376.0,1723060440,,,1.0,,,,,,,,-15.32367217996712,3.26671491142595,0.5555000000000011,71.74322529969588,-76.49555312088407,1,0,101655.7469999999,,,,0.0,
4,2024-08-08 21:35:00,130.844,131.03,131.03,130.566,225923.0,29539712.0,1723124100,1.0,,,,,,,,,,46.205831537977645,11.47228878374544,0.9294999999999984,73.29994424275657,80.27776415424714,1,0,50888.27499999991,130.844:388.0;,130.844:388.0;,,0.0,130.844;
8,2024-08-08 21:39:00,129.84,130.11,130.11,129.76,194866.0,25315808.0,1723124340,,,,,,,,,,,62.44489031936584,11.47228878374544,0.9294999999999984,73.29994424275657,75.13601944793112,0,0,101266.1949999999,,,129.84:388.0;,-389.5519999999964,
9,2024-08-08 21:40:00,130.255,129.855,130.305,129.855,206671.0,26884672.0,1723124400,,,,,,,,,1.0,,63.56928451828404,15.838815808992024,1.0009999999999988,73.29994424275657,72.64236298153467,1,0,50466.74499999991,130.255:390.0;,130.255:390.0;,,0.0,130.255;
32,2024-08-08 22:03:00,131.41,131.81,131.87,131.41,197067.0,25935744.0,1723125780,,1.0,,,,,,,,,91.71949683968462,35.84468210790376,1.154214285714281,73.14561550207584,68.16123111660035,0,1,76091.6949999999,130.255:195.0;,,131.41:195;,225.22500000000022,131.58;
41,2024-08-08 22:12:00,132.176,131.93,132.2,131.93,168485.0,22250880.0,1723126320,,,,,,,,,,1.0,113.73749693372936,56.90902970029274,1.2095714285714243,73.14561550207584,64.75597146878624,0,1,101866.0149999999,,,132.176:195.0;,374.5949999999985,132.3;
215,2024-08-21 01:06:00,154.804,154.815,154.816,154.765,74616.0,11551232.0,1724173560,,,,,1.0,,,,,,-3.8399727246792175,5.315876753045359,0.4705000000000012,78.60414161667285,-75.6924339495353,1,0,50935.498999999894,154.804:329.0;,154.804:329.0;,,0.0,154.804;
346,2024-08-21 03:17:00,157.323,157.27,157.379,157.27,100688.0,15838208.0,1724181420,,,,,,,,,,,17.382733417942006,82.65155037965964,0.3485714285714282,69.25204429592108,-45.774764935170495,0,0,102694.76599999989,,,157.323:329.0;,828.7510000000018,
65,2024-08-22 22:36:00,156.06,156.17,156.2,156.06,121308.0,18930176.0,1724337360,,,,,,,1.0,,,,-8.112141416816385,7.450760964235698,0.7922142857142863,67.89714118551072,-76.74981162860615,1,0,51351.02599999989,156.06:329.0;,156.06:329.0;,,0.0,156.06;
101,2024-08-22 23:12:00,155.85,155.85,155.87,155.809,89169.0,13908736.0,1724339520,,,,,,,,,,,61.714393560335886,-3.905659529991766,0.5966428571428557,66.20695742003522,29.038819899597208,0,0,102625.67599999989,,,155.85:329.0;,-69.09000000000262,
266,2024-08-23 01:57:00,151.94,151.89,151.98,151.89,79902.0,12129280.0,1724349420,,,1.0,,,,,,,,-1.5779634340452446,-4.257453823070101,0.4873571428571414,40.81475185159937,-70.0035355772796,1,0,51421.89599999989,151.94:337.0;,151.94:337.0;,,0.0,151.94;
328,2024-08-23 02:59:00,152.06,151.885,152.13,151.885,141688.0,21536768.0,1724353140,,,,,,,,,,,75.15745747915425,5.7072592786705805,0.3458571428571458,23.158079708672403,64.71876057556068,0,0,102666.11599999989,,,152.06:337.0;,40.44000000000153,
64,2024-08-26 22:35:00,149.885,149.74,149.885,149.653,252996.0,37944320.0,1724682900,,,1.0,,,,,,,,-18.14219016440449,18.112108883853907,1.2127857142857132,12.807562888931573,-78.31316466955975,1,0,51405.445999999894,149.885:342.0;,149.885:342.0;,,0.0,149.885;
136,2024-08-26 23:47:00,150.701,150.42,150.71,150.42,159568.0,24065792.0,1724687220,,,,,,,,,,,39.860781767273565,9.873143016052635,0.5557142857142858,11.828486109539227,60.780706777892384,0,0,102945.1879999999,,,150.701:342.0;,279.07200000000086,
77,2024-08-28 22:48:00,147.15,147.11,147.2,147.11,130154.0,19139840.0,1724856480,,,,,,,1.0,,1.0,,23.22877550407906,6.67611700284678,0.7385714285714268,11.352982387204232,-75.75557711666427,1,0,51589.837999999894,147.15:349.0;,147.15:349.0;,,0.0,147.15;
90,2024-08-28 23:01:00,146.12,146.38,146.38,146.12,166070.0,24272768.0,1724857260,,,,,,,,,,,4.880691631959799,-2.7177857852036027,0.6124999999999992,8.944923273256926,-67.67254550932941,0,0,102585.7179999999,,,146.12:349.0;,-359.47000000000037,
104,2024-08-28 23:15:00,145.11,145.08,145.13,145.01,112871.0,16365952.0,1724858100,,,,,1.0,,,,,,-7.318933301338376,-10.456322497292431,0.6166428571428538,8.944923273256926,-76.608940150476,1,0,51216.777999999904,145.11:354.0;,145.11:354.0;,,0.0,145.11;
167,2024-08-29 00:18:00,145.7,145.91,145.97,145.7,74990.0,10939904.0,1724861880,,,,,,,,,,,72.03583610637175,1.659855662233035,0.4377142857142826,8.001909330029882,62.11169092430784,0,0,102794.57799999989,,,145.7:354.0;,208.85999999999115,
300,2024-08-30 02:31:00,146.31,146.18,146.42,146.09,111668.0,16333056.0,1724956260,,,,,,,,,1.0,,-14.841018130252053,12.586486061831891,0.385785714285717,63.28626348523649,-76.5507552699908,1,0,51439.767999999895,146.31:351.0;,146.31:351.0;,,0.0,146.31;
302,2024-08-30 02:33:00,146.148,146.075,146.2,146.075,68676.0,10043904.0,1724956380,,,,,1.0,,,,,,-15.232322492235127,12.586486061831891,0.385785714285717,63.28626348523649,-74.62980942742931,1,0,141.81999999989785,146.31:351.0;146.148:351.0;,146.148:351.0;,,0.0,146.31;146.148;
308,2024-08-30 02:39:00,145.71,145.705,145.71,145.54,124226.0,18107392.0,1724956740,,,,,,,,,,,-11.3549323243873,5.356962035387795,0.4050000000000011,63.28626348523649,-66.59469510064955,0,0,51286.029999999904,146.148:351.0;,,145.71:351.0;,-210.599999999998,146.165;
313,2024-08-30 02:44:00,145.5,145.44,145.5,145.2,186560.0,27135488.0,1724957040,,,,,,,,,,,-9.28115136466738,-0.5188251914073305,0.4355000000000026,63.28626348523649,-71.08581557825117,0,0,102356.52999999991,,,145.5:351.0;,-227.44799999999864,
316,2024-08-30 02:47:00,145.15,145.05,145.17,145.04,136386.0,19800320.0,1724957220,,,,,,,1.0,,,,-9.46963077211879,-5.454663978513452,0.4850714285714304,63.28626348523649,-70.97665507623681,1,0,50973.42999999991,145.15:354.0;,145.15:354.0;,,0.0,145.15;
338,2024-08-30 03:09:00,144.75,145.01,145.05,144.75,50536.0,7332352.0,1724958540,,,,,,,,,,,16.242322873045925,-11.13354182652978,0.572571428571426,64.01508669263568,-25.659872452302505,0,0,102214.9299999999,,,144.75:354.0;,-141.600000000002,
5,2024-08-30 21:36:00,147.396,147.221,147.54,147.221,179605.0,26485040.0,1725024960,1.0,,,,,,,,,,83.36354787350092,5.517747983321826,0.7519999999999953,66.6364282821765,65.5733811188957,1,0,51215.91399999991,147.396:346.0;,147.396:346.0;,,0.0,147.396;
44,2024-08-30 22:15:00,147.35,147.46,147.5,147.343,101236.0,14919424.0,1725027300,,,,,,,,,,,62.54722518746257,63.15789373234138,0.7829999999999951,71.5324051508693,-19.00009147206477,0,0,102199.01399999991,,,147.35:346.0;,-15.915999999997325,
343,2024-09-04 03:14:00,137.5,137.44,137.52,137.41,106078.0,14598912.0,1725390840,,,1.0,,,,,,,,5.818837853399259,-2.987991777730759,0.3499999999999983,-0.6131767089044473,-71.93714517592144,1,0,51186.51399999991,137.5:371.0;,137.5:371.0;,,0.0,137.5;
361,2024-09-04 03:32:00,136.98,136.951,137.0,136.95,112864.0,15479552.0,1725391920,,,,,,,,,,,4.566143517562438,-2.121649763186168,0.3316428571428572,-4.154592151860157,-61.194778080423,0,0,102006.0939999999,,,136.98:371.0;,-192.9200000000038,
3,2024-09-04 21:34:00,140.17,140.16,140.555,139.902,355924.0,49919264.0,1725456840,1.0,,,,,,,,,,80.67686738271877,4.56356624912263,0.4742142857142823,-7.520341273426951,86.13596974286533,1,0,51124.3839999999,140.17:363.0;,140.17:363.0;,,0.0,140.17;
31,2024-09-04 22:02:00,138.795,139.68,139.68,138.795,233066.0,32398848.0,1725458520,,,,,,,,,,,100.82543206620078,73.84702294520481,1.0422142857142862,-4.987940714790781,19.79710336345362,0,0,101506.9689999999,,,138.795:363.0;,-499.125,
15,2024-09-06 21:46:00,137.365,137.54,137.54,137.365,121224.0,16657344.0,1725630360,,,,,1.0,,,,,,20.927450724641403,18.75494783169188,0.7931428571428601,21.62807321663809,-68.48393122639136,1,0,50819.28399999989,137.365:369.0;,137.365:369.0;,,0.0,137.365;
22,2024-09-06 21:53:00,136.91,137.06,137.13,136.76,143719.0,19677952.0,1725630780,,,,,,,,,,,12.877010425984023,17.9665140348052,0.8383571428571445,21.62807321663809,-64.90905446831839,0,0,101339.07399999989,,,136.91:369.0;,-167.89500000000461,
27,2024-09-06 21:58:00,136.82,137.13,137.28,136.82,133509.0,18292736.0,1725631080,,,,,,,1.0,,,,2.413594803465529,13.52023484655018,0.8769285714285705,21.62807321663809,-74.70672462264898,1,0,50715.6739999999,136.82:370.0;,136.82:370.0;,,0.0,136.82;
32,2024-09-06 22:03:00,136.49,135.955,136.49,135.955,133541.0,18193920.0,1725631380,,,,,,,,,1.0,,-4.62065573418284,9.332359415198752,0.9194285714285704,16.211294035751664,-73.11575896135241,1,0,77.88399999989633,136.82:370.0;136.49:371.0;,136.49:371.0;,,0.0,137.05;136.49;
37,2024-09-06 22:08:00,135.53,135.93,135.97,135.53,187510.0,25448768.0,1725631680,,,,,,,,,,,-7.843381581014022,6.250034076056991,0.9547857142857116,16.211294035751664,-76.31391466268703,0,0,50223.983999999895,136.49:371.0;,,135.53:370.0;,-477.29999999999706,136.49;
60,2024-09-06 22:31:00,135.02,134.92,135.02,134.82,273051.0,36832384.0,1725633060,,,,,,,,,,,2.561676188643137,-1.3561383093479122,1.0876428571428514,11.276036552612226,-74.6451760021209,0,0,100316.4039999999,,,135.02:371.0;,-545.3699999999995,
88,2024-09-06 22:59:00,133.395,133.6,133.6,133.395,124971.0,16667520.0,1725634740,,,,,1.0,,,,,,-2.189596726522032,-9.990459531700791,0.7032142857142857,11.276036552612226,-77.13573744033488,1,0,49626.30399999989,133.395:380.0;,133.395:380.0;,,0.0,133.395;
98,2024-09-06 23:09:00,133.66,133.6,133.69,133.6,97316.0,12999808.0,1725635340,,,,,,,,,,,26.03994210450917,-9.572044493579774,0.7182142857142862,7.327695605775986,78.49439532540106,0,0,100417.10399999988,,,133.66:380.0;,100.69999999999482,
