,dt,open,close,high,low,vol,turnover,ts,icon_1,icon_2,icon_11,icon_12,icon_13,icon_41,icon_34,icon_35,icon_38,icon_39,jw1,jw5,atr5,jw30,baijiao,buy_signal,sell_signal,cash,chicang,buy_detail,sell_detail,profit,max_zhiying_prices
12,2024-01-05 22:43:00,71.785,71.82,71.82,71.77,101606.0,7462320.0,1704465780,1.0,,,,,,,,,,0.5521451841643525,7.316738511850673,0.1875714285714279,,-71.50004137808719,1,0,50037.64,71.785:696.0;,71.785:696.0;,,0.0,71.785;
19,2024-01-05 22:50:00,71.5,71.575,71.575,71.499,75339.0,5511792.0,1704466200,,,,,,,,,,,-8.13720945340907,3.5925255084574985,0.212142857142857,,-77.49435375404144,0,0,99801.64,,,71.5:696.0;,-198.35999999999763,
333,2024-01-13 04:04:00,70.305,70.31,70.31,70.305,16002.0,1150784.0,1705089840,,,,,,,,,1.0,,1.527936295636934,-14.644539125165515,0.0690714285714284,76.31240217365874,-69.8556617486616,1,0,49955.395,70.305:709.0;,70.305:709.0;,,0.0,70.305;
381,2024-01-13 04:52:00,70.24,70.22,70.24,70.2,113678.0,8167552.0,1705092720,,,,,,,,,,,45.94913921397316,-9.847256525396084,0.0578571428571399,72.14162261890364,-53.63155450128158,0,0,99755.555,,,70.24:709.0;,-46.08500000000846,
149,2024-01-17 01:00:00,68.12,68.13,68.13,68.115,27802.0,1939200.0,1705424400,1.0,,,,,,,,,,10.313895741543078,0.1323882254236004,0.1364285714285722,13.64089375310094,-75.69178441583354,1,0,49891.71499999999,68.12:732.0;,68.12:732.0;,,0.0,68.12;
162,2024-01-17 01:13:00,67.955,67.93,67.97,67.93,113395.0,7896000.0,1705425180,,,,,,,,,,,-2.8989055482910477,-1.061980757017384,0.1339285714285724,13.64089375310094,-74.4629733587037,0,0,99634.775,,,67.955:732.0;,-120.78000000000458,
64,2024-01-25 23:35:00,72.09,72.075,72.09,72.065,69063.0,5089472.0,1706196900,,,,,,,1.0,,1.0,,-3.6478452170586593,3.4164887635335504,0.3819999999999999,92.58113355732957,-75.01443109333064,1,0,49820.58499999999,72.09:691.0;,72.09:691.0;,,0.0,72.09;
160,2024-01-26 01:11:00,72.525,72.527,72.535,72.495,38480.0,2854080.0,1706202660,,,,,,,,,,,71.8905718264981,20.454832423237463,0.146642857142859,88.51267848273159,-6.315920294558542,0,0,99935.35999999999,,,72.525:691.0;,300.58500000000157,
7,2024-01-29 22:38:00,71.97,72.12,72.175,71.97,99079.0,7304648.0,1706539080,1.0,,,,,,,,1.0,,22.33772496149408,-21.916238361653058,0.1641428571428582,52.79277712203714,-54.515873158217865,1,0,49988.179999999986,71.97:694.0;,71.97:694.0;,,0.0,71.97;
11,2024-01-29 22:42:00,71.85,71.875,71.908,71.85,85994.0,6322688.0,1706539320,,,,,,,,,,,17.943578570142762,-19.79113633624713,0.1958571428571452,52.79277712203714,-11.952038291017937,0,0,99852.07999999999,,,71.85:694.0;,-83.28000000000316,
23,2024-01-29 22:54:00,71.645,71.695,71.71,71.645,57398.0,4208320.0,1706540040,,,,,1.0,,,,,,1.3879205249218032,-20.442307705025414,0.2253571428571459,52.79277712203714,-66.60002882393239,1,0,49915.51499999999,71.645:697.0;,71.645:697.0;,,0.0,71.645;
38,2024-01-29 23:09:00,71.34,71.4,71.4,71.296,94354.0,6885856.0,1706540940,,,,,,,,,,,-1.7331361181003864,-18.877517114315907,0.2653571428571441,46.22576395866224,-75.00965985575587,0,0,99639.495,,,71.34:697.0;,-212.58499999999486,
384,2024-02-01 04:55:00,70.385,70.415,70.415,70.37,45276.0,3261760.0,1706734500,1.0,,,,,,,,,,14.054545312345644,6.821021816529196,0.186642857142856,37.15117869673719,-76.6908281441636,1,0,99639.495,,,,0.0,
51,2024-02-02 23:22:00,69.8,69.86,69.86,69.794,44474.0,3177536.0,1706887320,1.0,,,,,,,,,,-1.0308289562676407,-2.6883637858917098,0.2967142857142865,51.891205585410106,-77.44184862090297,1,0,49872.094999999994,69.8:713.0;,69.8:713.0;,,0.0,69.8;
67,2024-02-02 23:38:00,69.43,69.544,69.544,69.415,84502.0,6007072.0,1706888280,,,,,,,,,,,1.9394006747952128,-9.819199971086732,0.3099285714285713,44.367025201186536,-74.36269148407507,0,0,99375.685,,,69.43:713.0;,-263.8099999999931,
4,2024-02-06 22:35:00,74.362,74.23,74.48,74.23,391200.0,29732528.0,1707230100,1.0,,,,,,,,,,23.94351877314513,9.810866908766911,0.3909285714285713,114.43817026265816,67.08011545936589,1,0,49701.869,74.362:668.0;,74.362:668.0;,,0.0,74.362;
43,2024-02-06 23:14:00,75.32,75.285,75.325,75.285,86603.0,6661504.0,1707232440,,1.0,,,,,,,,,71.36914839930307,29.73340972453522,0.513928571428572,113.66891926127698,50.68155535529986,0,1,74858.749,74.362:334.0;,,75.32:334;,319.97199999999947,75.32;
76,2024-02-06 23:47:00,75.71,75.74,75.74,75.71,100811.0,7794688.0,1707234420,,,,,,,,,,1.0,108.81212649739832,56.773273067749216,0.3222142857142834,113.36694318430376,41.99506450770133,0,1,100145.889,,,75.71:334.0;,450.23199999999963,75.82;
35,2024-02-07 23:06:00,72.209,72.15,72.209,72.14,187304.0,13835904.0,1707318360,1.0,,,,,,,,1.0,,-18.529649183204235,11.411552571200502,1.0812857142857146,79.45060498163787,-78.33063185439313,1,0,50105.051999999996,72.209:693.0;,72.209:693.0;,,0.0,72.209;
82,2024-02-07 23:53:00,71.91,72.088,72.088,71.91,121736.0,8962560.0,1707321180,,,,,,,,,,,34.72715533559588,-22.36252867585067,0.5153571428571441,67.318344323459,-17.353303325684877,0,0,99938.682,,,71.91:693.0;,-207.20700000000457,
291,2024-02-13 03:22:00,71.512,71.58,71.58,71.5,30003.0,2195968.0,1707765720,,,,,1.0,,,,,,-2.535071727696348,12.14630163977708,0.1030000000000005,57.80843464152046,-73.22041563022343,1,0,50023.306,71.512:698.0;,71.512:698.0;,,0.0,71.512;
307,2024-02-13 03:38:00,71.47,71.49,71.49,71.47,19905.0,1455872.0,1707766680,,,,,,,,,,,23.458721858886875,0.9525898388904466,0.1007142857142854,65.1461444319686,-64.25752755850915,0,0,99909.366,,,71.47:698.0;,-29.31600000000111,
10,2024-02-20 22:41:00,71.23,71.2,71.252,71.145,78807.0,5742848.0,1708440060,1.0,,,,,,,,,,3.7604751564599503,-14.931895710405144,0.1642142857142861,76.791079230397,-69.85229389812754,1,0,49977.13599999999,71.23:701.0;,71.23:701.0;,,0.0,71.23;
26,2024-02-20 22:57:00,70.92,70.92,70.95,70.915,58779.0,4265792.0,1708441020,,,,,,,,,,,2.9429117713982613,-12.941233453470034,0.1944999999999999,76.791079230397,-70.60214880273581,0,0,99692.05599999998,,,70.92:701.0;,-217.3100000000016,
15,2024-02-22 22:46:00,73.85,73.9,73.92,73.85,78116.0,5898048.0,1708613160,1.0,,,,,,,,,,32.08893189963884,15.037010306554876,0.333285714285712,96.83481213897925,-68.95788938495487,1,0,49917.15599999999,73.85:674.0;,73.85:674.0;,,0.0,73.85;
25,2024-02-22 22:56:00,73.414,73.495,73.495,73.38,110901.0,8321984.0,1708613760,,,,,,,,,,,-2.7610414407798487,8.186982426988777,0.3614999999999974,96.83481213897925,-74.7416590614777,0,0,99398.19199999998,,,73.414:674.0;,-293.86399999999514,
26,2024-02-28 22:57:00,73.8,73.735,73.8,73.735,54697.0,4124176.0,1709132220,1.0,,,,,,,,,,-23.08984415477821,2.253934609002471,0.3007142857142832,90.27201478641445,-78.28029810752655,1,0,49730.79199999998,73.8:673.0;,73.8:673.0;,,0.0,73.8;
74,2024-02-28 23:45:00,73.445,73.43,73.46,73.43,31595.0,2372128.0,1709135100,,,,,,,,,,,4.711628000712008,-24.414237119226968,0.1838571428571427,61.22736630444146,-71.97479766152563,0,0,99159.27699999997,,,73.445:673.0;,-238.9150000000027,
383,2024-02-29 04:54:00,72.895,72.86,72.895,72.86,66851.0,4980224.0,1709153640,,,,,,,1.0,,,,24.465849867422374,10.694411208277389,0.0900714285714302,-11.467719382111696,-55.972849676499465,1,0,99159.27699999997,,,,0.0,
12,2024-03-04 22:43:00,70.73,70.71,70.78,70.71,141615.0,10252656.0,1709563380,1.0,,,,,,,,,,-9.107721965752702,1.078095493895617,0.2310714285714275,27.39030692078209,-78.2608548227922,1,0,49648.27699999997,70.73:700.0;,70.73:700.0;,,0.0,70.73;
27,2024-03-04 22:58:00,70.453,70.5,70.5,70.44,104238.0,7514016.0,1709564280,,,,,,,,,,,-17.187170891300074,-7.730153431997223,0.2491428571428571,27.39030692078209,-78.28414484577262,0,0,98965.37699999998,,,70.453:700.0;,-193.90000000000072,
12,2024-03-07 22:43:00,70.29,70.41,70.41,70.29,114624.0,8251328.0,1709822580,1.0,,,,,,,,,,-21.229010751907552,-9.676222224027242,0.2676428571428581,89.45091564175974,-78.15914668948352,1,0,49551.506999999976,70.29:703.0;,70.29:703.0;,,0.0,70.29;
159,2024-03-08 01:10:00,70.835,70.86,70.86,70.835,9623.0,697664.0,1709831400,,,,,,,,,,,65.52521710633624,26.966563088520488,0.0884285714285734,63.956409683394455,-34.12825827197392,0,0,99348.51199999997,,,70.835:703.0;,383.13499999999124,
350,2024-03-12 03:21:00,73.375,73.375,73.375,73.34,58362.0,4375808.0,1710184860,1.0,,,,,,,,,,2.3893250789371265,-23.65275936843817,0.0597857142857135,97.79959635454549,-71.0139037721877,1,0,49747.01199999997,73.375:676.0;,73.375:676.0;,,0.0,73.375;
381,2024-03-12 03:52:00,73.28,73.2,73.28,73.2,49603.0,3714432.0,1710186720,,,,,,,,,,,16.370839325833494,-23.074963656288183,0.0604285714285716,97.1590826491099,-36.918533080110734,0,0,99284.29199999997,,,73.28:676.0;,-64.21999999999923,
10,2024-03-12 21:41:00,73.79,73.89,73.89,73.763,57036.0,4303304.0,1710250860,1.0,,,,,,,,,,44.08628276407387,-8.569873399961082,0.2604285714285725,91.6790089038272,74.16120990350225,1,0,49697.41199999997,73.79:672.0;,73.79:672.0;,,0.0,73.79;
65,2024-03-12 22:36:00,74.655,74.6,74.655,74.6,41453.0,3160736.0,1710254160,,1.0,,,,,,,,,122.72575106769968,49.787977642167256,0.3855714285714273,93.01009811804218,61.80747355207705,0,1,74781.49199999997,73.79:336.0;,,74.655:336;,290.6399999999983,74.66;
91,2024-03-12 23:02:00,74.365,74.42,74.45,74.365,38419.0,2921440.0,1710255720,,,,,,,,,,,57.954288552850414,69.58428405787303,0.188999999999998,94.50128125483609,31.983217067069887,0,0,99768.13199999997,,,74.365:336.0;,193.19999999999618,
360,2024-03-14 03:31:00,74.935,74.96,74.96,74.935,49012.0,3754880.0,1710358260,,,,,1.0,,,,,,5.283673452330056,1.8203950273989449,0.0924285714285702,90.40058311254596,-76.90981396014782,1,0,99768.13199999997,,,,0.0,
3,2024-03-14 21:34:00,72.74,72.68,72.75,72.595,136173.0,10121304.0,1710423240,1.0,,,,,,,,,,3.453390185735966,-8.076583557859522,0.1295000000000001,87.8701494830095,-19.331951452478904,1,0,49941.231999999975,72.74:685.0;,72.74:685.0;,,0.0,72.74;
12,2024-03-14 21:43:00,72.42,72.44,72.523,72.42,164564.0,12199168.0,1710423780,,,,,,,,,,,-0.924804001665283,-11.40515304659128,0.2920000000000006,87.8701494830095,-74.4706366919663,0,0,99548.93199999997,,,72.42:685.0;,-219.19999999999533,
313,2024-03-15 02:44:00,71.955,71.94,71.957,71.94,15818.0,1163840.0,1710441840,,,,,,,1.0,,,,0.6153624483887654,13.929044738439943,0.0742142857142858,-3.364420102343871,-76.71639501654998,1,0,49684.11699999997,71.955:693.0;,71.955:693.0;,,0.0,71.955;
322,2024-03-15 02:53:00,71.89,71.875,71.89,71.875,34400.0,2529088.0,1710442380,,,,,,,,,,,-14.78932756866601,9.997372208318868,0.0752857142857144,-3.364420102343871,-77.2015557779952,0,0,99503.88699999996,,,71.89:693.0;,-45.044999999998424,
342,2024-03-15 03:13:00,71.715,71.685,71.715,71.67,23389.0,1716160.0,1710443580,,,,,,,,,1.0,,-12.757567708109196,4.441430267418205,0.0757857142857147,-8.996706426719697,-76.7093974134936,1,0,49661.961999999956,71.715:695.0;,71.715:695.0;,,0.0,71.715;
365,2024-03-15 03:36:00,71.675,71.663,71.675,71.634,275589.0,20197120.0,1710444960,,,,,,,,,,,27.891550314586794,9.562752182819992,0.0834285714285708,-13.423421493854876,-44.530458910222194,0,0,99476.08699999996,,,71.675:695.0;,-27.800000000004346,
337,2024-03-22 03:08:00,72.3,72.27,72.3,72.27,49654.0,3671744.0,1711048080,1.0,,,,,,,,,,3.487186703714812,-19.367431589833203,0.0900714285714282,100.98303124802918,-71.6708973467026,1,0,49805.98699999996,72.3:687.0;,72.3:687.0;,,0.0,72.3;
356,2024-03-22 03:27:00,72.35,72.35,72.356,72.345,19300.0,1428224.0,1711049220,,,,,,,,,,,57.20714593277441,-17.06483945486667,0.0950714285714267,100.98303124802918,73.40527496179618,0,0,99510.43699999995,,,72.35:687.0;,34.34999999999805,
100,2024-03-25 23:11:00,69.89,69.895,69.895,69.885,17646.0,1262112.0,1711379460,1.0,,,,,,,,,,0.4063867820556872,-6.7239486101678025,0.0901428571428561,-25.777293494779,-73.23778993202367,1,0,49818.646999999946,69.89:711.0;,69.89:711.0;,,0.0,69.89;
142,2024-03-25 23:53:00,69.893,69.9,69.9,69.89,9625.0,688576.0,1711381980,,,,,,,,,,,52.9035308785829,-5.23074486938107,0.0662857142857151,-28.15648344002868,52.67250405925314,0,0,99512.56999999995,,,69.893:711.0;,2.133000000000081,
304,2024-04-05 02:35:00,70.87,70.815,70.87,70.81,20488.0,1484480.0,1712255700,1.0,,,,1.0,,,,,,-3.1210817974681437,3.4981150746710767,0.0830714285714283,47.17592349905095,-61.435263514845786,1,0,49761.82999999994,70.87:702.0;,70.87:702.0;,,0.0,70.87;
312,2024-04-05 02:43:00,70.78,70.77,70.78,70.77,25624.0,1855552.0,1712256180,,,,,,,,,,,0.9003561623846466,0.0235939281641321,0.0844999999999994,47.17592349905095,-52.91385663954145,0,0,99449.38999999994,,,70.78:702.0;,-63.180000000002394,
333,2024-04-05 03:04:00,70.42,70.41,70.43,70.41,56669.0,4084992.0,1712257440,,,,,,,,,1.0,,-1.177185222006722,-15.641731316944744,0.0980714285714268,40.58297620485055,-76.20155910447065,1,0,49732.86999999994,70.42:706.0;,70.42:706.0;,,0.0,70.42;
348,2024-04-05 03:19:00,70.365,70.39,70.39,70.365,25586.0,1843200.0,1712258340,,,,,,,,,,,14.581004096585373,-18.64628070529723,0.1128571428571407,40.58297620485055,-35.828233130648385,0,0,99410.55999999994,,,70.365:706.0;,-38.830000000004816,
260,2024-04-09 01:51:00,70.035,70.02,70.035,70.02,18130.0,1299232.0,1712598660,1.0,,,,,,,,,,-2.6972518940682164,-8.196773162648142,0.0498571428571444,9.194398611959812,-75.14700450432846,1,0,49755.744999999944,70.035:709.0;,70.035:709.0;,,0.0,70.035;
271,2024-04-09 02:02:00,69.962,69.93,69.965,69.93,34062.0,2438976.0,1712599320,,,,,,,,,,,-6.677861838521768,-13.762503214381413,0.0496428571428586,6.600152599162598,-75.97770527452617,0,0,99358.80299999996,,,69.962:709.0;,-51.756999999995244,
48,2024-04-12 22:19:00,70.715,70.785,70.785,70.715,41527.0,3005600.0,1712931540,1.0,,,,,,,,,,-5.754910965412751,6.939686977045895,0.2667857142857132,71.13729200285778,-77.1764167946925,1,0,49716.872999999956,70.715:702.0;,70.715:702.0;,,0.0,70.715;
84,2024-04-12 22:55:00,70.75,70.73,70.76,70.72,52579.0,3805408.0,1712933700,,,,,,,,,,,62.449560139501926,-15.21567486070566,0.1111428571428559,61.7506617037603,82.1676717585644,0,0,99383.37299999996,,,70.75:702.0;,24.569999999997606,
322,2024-04-13 02:53:00,69.985,69.965,69.985,69.965,25440.0,1821952.0,1712947980,,,,,1.0,,1.0,,1.0,,-17.287913282516136,4.951961088772467,0.0767857142857165,1.732464850326295,-74.91320580308562,1,0,49764.007999999965,69.985:709.0;,69.985:709.0;,,0.0,69.985;
331,2024-04-13 03:02:00,69.885,69.905,69.924,69.885,39986.0,2861568.0,1712948520,,,,,,,,,,,-8.29594933067203,3.424389334283486,0.0742857142857157,-3.50119445050467,-73.46383653075726,0,0,99312.47299999997,,,69.885:709.0;,-70.89999999999597,
14,2024-04-15 21:45:00,69.345,69.52,69.52,69.345,95683.0,6805152.0,1713188700,1.0,,,,,,,,,,1.7145755071219997,9.608579892372024,0.192071428571427,-12.612392514279136,-76.16597285833134,1,0,49661.45299999997,69.345:716.0;,69.345:716.0;,,0.0,69.345;
102,2024-04-15 23:13:00,69.615,69.61,69.615,69.6,18502.0,1318368.0,1713193980,,,,,,,,,,,33.05336791613898,38.03736278044357,0.1065714285714258,-17.546283906869533,7.095509623919936,0,0,99505.79299999998,,,69.615:716.0;,193.31999999999715,
242,2024-04-16 01:33:00,68.795,68.795,68.795,68.78,53556.0,3772032.0,1713202380,,,,,1.0,,,,1.0,,-0.6551581664462134,-1.1499080671590889,0.0877857142857162,-23.39626604684277,-75.437601034807,1,0,49904.597999999976,68.795:721.0;,68.795:721.0;,,0.0,68.795;
256,2024-04-16 01:47:00,68.84,68.855,68.875,68.84,33174.0,2338368.0,1713203220,,,,,,,,,,,23.27910178122937,0.0184213258070826,0.0922857142857174,-23.39626604684277,78.85625944064914,0,0,99538.23799999998,,,68.84:721.0;,32.44500000000123,
336,2024-04-16 03:07:00,68.565,68.55,68.565,68.55,14940.0,1048640.0,1713208020,,,,,,,1.0,,,,10.524688953391866,-1.3447556551434126,0.0873571428571427,-25.11427893704537,-74.60690875588816,1,0,49897.177999999985,68.565:724.0;,68.565:724.0;,,0.0,68.565;
386,2024-04-16 03:57:00,69.07,69.075,69.075,69.055,113604.0,8030528.0,1713211020,,,,,,,,,,,120.76578412626034,23.756257938515976,0.0802857142857129,-25.06142663242016,56.6249238989441,0,0,99903.85799999998,,,69.07:724.0;,365.6199999999967,69.08;
236,2024-04-19 01:27:00,67.295,67.295,67.3,67.295,35697.0,2460576.0,1713461220,1.0,,,,,,,,,,6.448431835664419,18.225120293217444,0.0662857142857161,15.29305197744539,-17.479137344864714,1,0,49970.96799999998,67.295:742.0;,67.295:742.0;,,0.0,67.295;
249,2024-04-19 01:40:00,67.254,67.275,67.275,67.254,12021.0,828128.0,1713462000,,,,,,,,,,,18.70600340252705,2.737598063787999,0.0699285714285734,14.699119318108536,-54.06209105980473,0,0,99873.43599999999,,,67.254:742.0;,-30.421999999997638,
154,2024-04-27 00:05:00,73.685,73.65,73.685,73.65,21412.0,1613184.0,1714147500,,,,,,,1.0,,,,7.748813808096159,12.997901775695595,0.1200714285714253,84.59398169710195,-66.46553213194646,1,0,49988.690999999984,73.685:677.0;,73.685:677.0;,,0.0,73.685;
171,2024-04-27 00:22:00,73.545,73.605,73.605,73.535,58454.0,4394496.0,1714148520,,,,,,,,,,,25.44327645043672,7.077633930624685,0.1104999999999957,84.59398169710195,-68.42911486561796,0,0,99778.65599999999,,,73.545:677.0;,-94.78000000000038,
4,2024-05-14 21:35:00,78.09,77.598,78.11,77.598,400641.0,31849344.0,1715693700,1.0,,,,,,,,,,-1.5904000143785169,16.374724840134633,0.6830714285714278,107.44101657139402,-76.18694945752746,1,0,49957.23599999998,78.09:638.0;,78.09:638.0;,,0.0,78.09;
36,2024-05-14 22:07:00,77.26,77.285,77.285,77.08,381240.0,30070528.0,1715695620,,,,,,,,,,,-9.55340837165415,-1.1003598094237643,0.8205000000000007,92.69079214370342,-76.42338334102578,0,0,99249.11599999998,,,77.26:638.0;,-529.5399999999989,
39,2024-05-14 22:10:00,77.315,77.27,77.315,77.18,200424.0,15820672.0,1715695800,,,,,,,,,1.0,,-10.539067139126349,-4.122661353445778,0.8443571428571447,92.69079214370342,-77.47283688130157,1,0,49380.940999999984,77.315:645.0;,77.315:645.0;,,0.0,77.315;
52,2024-05-14 22:23:00,76.475,76.37,76.475,76.325,212726.0,16599296.0,1715696580,,,,,,,1.0,,,,-6.009223176807051,-9.815082692198146,0.922214285714288,92.69079214370342,-77.84251208125129,1,0,54.56599999999162,77.315:645.0;76.475:645.0;,76.475:645.0;,,0.0,77.315;76.475;
77,2024-05-14 22:48:00,76.735,76.8,76.8,76.735,115114.0,9025664.0,1715698080,,,,,,,,,,,56.33594131186308,-12.696568320822053,0.398928571428574,77.36382153953244,64.5346338720388,0,0,49548.64099999999,76.475:645.0;,,76.735:645.0;,-374.0999999999989,76.995;
115,2024-05-14 23:26:00,77.1,76.98,77.125,76.98,137696.0,10840832.0,1715700360,,,,,,,,,,,76.02821308029132,-4.27936528406903,0.2648571428571437,65.71529375882523,69.53112785035093,0,0,99278.14099999997,,,77.1:645.0;,403.125,
82,2024-05-31 22:53:00,76.039,76.155,76.16,76.039,105560.0,8208640.0,1717167180,1.0,,,,,,,,,,-7.505658468846377,17.314360052201337,0.2605000000000014,43.63069099081535,-68.26028859573144,1,0,49700.712999999974,76.039:652.0;,76.039:652.0;,,0.0,76.039;
92,2024-05-31 23:03:00,75.83,75.79,75.85,75.79,57412.0,4445888.0,1717167780,,,,,,,,,,,-3.403778190590515,15.194733811153256,0.2457142857142875,40.1376647640473,-76.60545523304819,0,0,99141.87299999996,,,75.83:652.0;,-136.26800000000208,
86,2024-06-03 22:57:00,76.18,76.14,76.18,76.14,22424.0,1744800.0,1717426620,,,,,,,1.0,,,,9.480393266870864,7.938347235744061,0.2408571428571428,25.02333473571889,-76.41810503019698,1,0,49624.872999999956,76.18:650.0;,76.18:650.0;,,0.0,76.18;
90,2024-06-03 23:01:00,76.01,75.95,76.01,75.92,53515.0,4153664.0,1717426860,,,,,,,,,1.0,,-0.4210549440956228,2.107671396869506,0.2315714285714289,23.443385942583177,-76.97095628343425,1,0,66.35299999995186,76.18:650.0;76.01:652.0;,76.01:652.0;,,0.0,76.18;76.01;
95,2024-06-03 23:06:00,75.87,75.885,75.885,75.87,22898.0,1774880.0,1717427160,,,,,,,,,,,-6.501855748845024,-2.9891381712281917,0.2205000000000002,23.443385942583177,-74.24358461029144,0,0,49381.85299999995,76.01:652.0;,,75.87:650.0;,-201.50000000000148,76.01;
158,2024-06-04 00:09:00,76.2,76.215,76.22,76.2,12392.0,964672.0,1717430940,,,,,,,,,,,83.32502769968099,-2.137796906562912,0.1258571428571398,22.49235493531729,18.858347974623246,0,0,99064.25299999995,,,76.2:652.0;,123.87999999999852,
63,2024-06-06 22:34:00,77.175,77.26,77.26,77.175,36332.0,2864752.0,1717684440,1.0,,,,,,,,,,6.481129987061912,12.299624681140472,0.2582857142857143,101.79699103692776,-76.16068002223119,1,0,49595.07799999996,77.175:641.0;,77.175:641.0;,,0.0,77.175;
190,2024-06-07 00:41:00,77.935,77.933,77.95,77.933,18420.0,1465856.0,1717692060,,1.0,,,,,,,,,83.96559525509088,54.94208516211965,0.0829999999999984,99.54530572432776,14.558806384115396,0,1,74612.21299999996,77.175:320.0;,,77.935:321;,243.96000000000163,77.955;
197,2024-06-07 00:48:00,77.82,77.85,77.85,77.82,10654.0,846272.0,1717692480,,,,,,,,,,,41.0412047319185,56.20164379063864,0.0876428571428564,99.54530572432776,-36.70544420168135,0,0,99514.61299999995,,,77.82:320.0;,206.39999999999873,
186,2024-06-08 00:37:00,77.005,76.97,77.005,76.96,22017.0,1730784.0,1717778220,1.0,,,,,,,,,,32.471921007662715,-8.791145598425544,0.0721428571428554,56.304129459307234,-69.82421454089646,1,0,49769.38299999996,77.005:646.0;,77.005:646.0;,,0.0,77.005;
197,2024-06-08 00:48:00,76.835,76.83,76.835,76.82,30979.0,2430496.0,1717778880,,,,,,,,,,,-3.0418740014780568,-12.809311152478545,0.066285714285712,56.304129459307234,-76.39319084563861,0,0,99404.79299999995,,,76.835:646.0;,-109.8200000000011,
201,2024-06-08 00:52:00,76.875,76.855,76.88,76.85,23161.0,1818144.0,1717779120,,,,,1.0,,,,,,-3.3746309427721,-14.333133118742012,0.0648571428571409,56.304129459307234,-52.98376306315978,1,0,49666.66799999995,76.875:647.0;,76.875:647.0;,,0.0,76.875;
245,2024-06-08 01:36:00,76.902,76.912,76.915,76.902,51569.0,4050752.0,1717781760,,,,,,,,,,,76.09516998208358,-6.9141397275306105,0.0787142857142859,43.88256677065348,17.733594291183728,0,0,99422.26199999994,,,76.902:647.0;,17.469000000000662,
130,2024-06-11 23:41:00,76.63,76.591,76.63,76.591,28796.0,2252672.0,1718120460,1.0,,,,,,,,,,-7.61995250853542,-15.080402111227045,0.097928571428571,41.899297382468845,-72.38932062664576,1,0,49766.021999999946,76.63:648.0;,76.63:648.0;,,0.0,76.63;
137,2024-06-11 23:48:00,76.39,76.46,76.465,76.39,43468.0,3391968.0,1718120880,,,,,,,,,,,-1.6656349930804168,-15.180205938347832,0.0999999999999994,41.899297382468845,-66.36124037104707,0,0,99266.74199999994,,,76.39:648.0;,-155.51999999999668,
18,2024-06-13 21:49:00,76.16,76.179,76.179,76.16,43577.0,3319360.0,1718286540,1.0,,,,,,,,,,31.010358389813504,6.320455846196538,0.2757142857142857,56.31070393837393,-71.70696257739628,1,0,49686.581999999944,76.16:651.0;,76.16:651.0;,,0.0,76.16;
72,2024-06-13 22:43:00,75.772,75.78,75.78,75.765,39560.0,2997376.0,1718289780,,,,,,,,,,,18.58768362657443,-6.644185542454622,0.2892857142857151,49.32726053085173,-74.53428031813851,0,0,99014.15399999995,,,75.772:651.0;,-252.58799999999417,
153,2024-06-14 00:04:00,75.57,75.55,75.57,75.53,26335.0,1989376.0,1718294640,,,,,1.0,,,,,,10.376625126441953,-5.587970601043658,0.0991428571428595,35.87448036123133,-77.48243220839967,1,0,49440.23399999995,75.57:656.0;,75.57:656.0;,,0.0,75.57;
174,2024-06-14 00:25:00,75.57,75.55,75.57,75.545,13413.0,1013440.0,1718295900,,,,,,,,,,,9.442828365065424,-5.385283525548459,0.1043571428571437,35.87448036123133,-64.52188237821957,0,0,99014.15399999995,,,75.57:656.0;,0.0,
145,2024-06-14 23:56:00,73.455,73.44,73.46,73.44,29988.0,2203072.0,1718380560,1.0,,,,,,,,,,-11.517198422263128,-9.239984180592948,0.1107142857142845,-7.538463396863989,-77.01118798986873,1,0,49578.938999999955,73.455:673.0;,73.455:673.0;,,0.0,73.455;
155,2024-06-15 00:06:00,73.324,73.325,73.335,73.324,29678.0,2176576.0,1718381160,,,,,,,,,,,-12.511844681371509,-10.433346037026531,0.1082142857142827,-9.090910098590683,-77.97739389683126,0,0,98925.99099999995,,,73.324:673.0;,-88.16300000000015,
60,2024-06-20 22:31:00,74.35,74.335,74.36,74.335,21087.0,1567856.0,1718893860,1.0,,,,,,,,,,3.375139186995177,6.117213142885589,0.2513571428571443,49.769482930349085,-75.37553866067742,1,0,49483.24099999996,74.35:665.0;,74.35:665.0;,,0.0,74.35;
105,2024-06-20 23:16:00,74.44,74.43,74.445,74.42,25741.0,1916048.0,1718896560,,,,,,,,,,,77.96789620208355,9.892193516362,0.140428571428572,51.187612268726994,23.65917677883781,0,0,98985.84099999996,,,74.44:665.0;,59.85000000000227,
92,2024-06-25 23:03:00,73.89,73.92,73.92,73.89,23604.0,1744192.0,1719327780,1.0,,,,,,,,,,-0.6049282304370109,-1.2490861816664849,0.1189285714285708,61.81122027185327,-71.04354985722935,1,0,49553.43099999995,73.89:669.0;,73.89:669.0;,,0.0,73.89;
146,2024-06-25 23:57:00,73.895,73.91,73.91,73.89,17664.0,1305440.0,1719331020,,,,,,,,,,,60.02742628331863,-1.9541328717870243,0.1093571428571412,57.52098694355711,-49.11108086774415,0,0,98989.18599999996,,,73.895:669.0;,3.3449999999969577,
272,2024-06-28 02:03:00,72.51,72.505,72.51,72.5,13421.0,972544.0,1719511380,1.0,,,,,,,,,,-4.799447240972583,0.5252554817090669,0.0597142857142845,4.057535653334611,-73.22210385758483,1,0,49537.36599999995,72.51:682.0;,72.51:682.0;,,0.0,72.51;
289,2024-06-28 02:20:00,72.445,72.455,72.455,72.43,24796.0,1795328.0,1719512400,,,,,,,,,,,0.8711719780945231,0.1509254911581301,0.0664999999999998,4.057535653334611,-76.28179062988043,0,0,98944.85599999994,,,72.445:682.0;,-44.33000000000814,
38,2024-07-05 22:09:00,73.653,73.665,73.71,73.64,74178.0,5462496.0,1720188540,1.0,,,,,,,,,,-3.328118007939832,-3.4903694021226386,0.2228571428571431,88.75029944868254,-76.52274588122765,1,0,49523.69299999994,73.653:671.0;,73.653:671.0;,,0.0,73.653;
80,2024-07-05 22:51:00,74.37,74.35,74.37,74.315,39132.0,2908480.0,1720191060,,1.0,,,,,,,,,126.80664115018268,-8.086616647521652,0.1694999999999973,81.95501051607238,81.22648447192078,0,1,74512.01299999995,73.653:335.0;,,74.37:336;,240.91199999999958,74.455;
91,2024-07-05 23:02:00,74.215,74.134,74.215,74.12,58498.0,4338368.0,1720191720,,,,,,,,,,,104.22156088504622,-1.8912136874850771,0.1570714285714274,77.33285279402119,76.66489929359157,0,0,99374.03799999994,,,74.215:335.0;,188.2699999999992,
174,2024-07-18 00:25:00,76.515,76.51,76.515,76.5,34096.0,2608352.0,1721233500,,,,,1.0,,,,1.0,,-6.8807544882620135,-19.05581647182394,0.1232142857142863,7.535907663373024,-77.03316210829476,1,0,49715.80299999994,76.515:649.0;,76.515:649.0;,,0.0,76.515;
198,2024-07-18 00:49:00,76.605,76.694,76.694,76.605,16502.0,1264448.0,1721234940,,,,,,,,,,,51.70240743224399,-13.964021274377458,0.1414285714285727,3.554274963720033,38.42424120489385,0,0,99432.44799999995,,,76.605:649.0;,58.41000000000221,
126,2024-07-18 23:37:00,76.685,76.675,76.695,76.665,19579.0,1501536.0,1721317020,,,,,,,1.0,,,,8.058519194015233,8.12284915567568,0.19592857142857,12.801499942415376,-74.6731131622867,1,0,49740.56799999994,76.685:648.0;,76.685:648.0;,,0.0,76.685;
139,2024-07-18 23:50:00,76.44,76.52,76.52,76.425,55556.0,4248032.0,1721317800,,,,,,,,,,,15.994989594896497,-2.355538591649932,0.190571428571428,12.801499942415376,-62.89133850499216,0,0,99273.68799999994,,,76.44:648.0;,-158.76000000000295,
50,2024-07-19 22:21:00,75.335,75.39,75.39,75.33,23456.0,1767728.0,1721398860,1.0,,,,,,,,,,-6.424767903263316,15.136584803166684,0.249214285714285,15.368972080865298,-76.1058566756904,1,0,49703.25799999994,75.335:658.0;,75.335:658.0;,,0.0,75.335;
98,2024-07-19 23:09:00,75.53,75.515,75.54,75.515,44830.0,3386752.0,1721401740,,,,,,,,,,,103.74315171050256,14.906637448719708,0.145857142857145,13.65538603177978,72.42867336405885,0,0,99401.99799999993,,,75.53:658.0;,128.31000000000486,
388,2024-07-26 03:59:00,75.465,75.385,75.465,75.385,89254.0,6732608.0,1721937540,1.0,,,,,,,,,,-4.916386774696832,-0.7928789893456951,0.0915000000000004,48.92432800371185,-71.46964307430119,1,0,99401.99799999993,,,,0.0,
147,2024-07-30 23:58:00,77.9,77.92,77.92,77.89,23608.0,1838528.0,1722355080,1.0,,,,,,,,,,0.7593869880707871,9.03392935563042,0.1327857142857149,84.91500899749735,-70.12888273184339,1,0,49779.69799999993,77.9:637.0;,77.9:637.0;,,0.0,77.9;
203,2024-07-31 00:54:00,77.894,77.895,77.895,77.88,10222.0,795744.0,1722358440,,,,,,,,,,,76.01126559241725,-1.365523108976333,0.1123571428571433,80.5744418152141,58.17841980688293,0,0,99398.17599999993,,,77.894:637.0;,-3.822000000000145,
63,2024-08-01 22:34:00,78.58,78.55,78.58,78.515,24009.0,1885856.0,1722522840,1.0,,,,,,,,,,-1.9927313469570864,14.40809629137651,0.2996428571428556,80.62196985272561,-74.58302067595379,1,0,49735.615999999936,78.58:632.0;,78.58:632.0;,,0.0,78.58;
99,2024-08-01 23:10:00,78.59,78.588,78.6,78.585,36344.0,2856240.0,1722525000,,,,,,,,,,,68.6061492002389,-0.7317822198145478,0.1856428571428564,78.43473650103377,-38.76824314840808,0,0,99404.49599999994,,,78.59:632.0;,6.320000000003233,
19,2024-08-07 21:50:00,78.07,78.08,78.1,78.07,45652.0,3564872.0,1723038600,1.0,,,,,,,,,,47.505389053943645,9.857185568039595,0.2709999999999977,98.6233231268495,-15.691878914686043,1,0,49751.975999999944,78.07:636.0;,78.07:636.0;,,0.0,78.07;
48,2024-08-07 22:19:00,77.922,77.925,77.94,77.91,25299.0,1971680.0,1723040340,,,,,,,,,,,6.492020363640549,7.54789644862781,0.2963571428571419,98.77664769723054,-56.86231702366942,0,0,99310.36799999994,,,77.922:636.0;,-94.12799999999754,
29,2024-08-09 22:00:00,79.31,79.27,79.32,79.27,22728.0,1802752.0,1723212000,1.0,,,,,,,,,,-15.628152563905084,15.059563642757013,0.253071428571427,95.2163058287792,-76.51708625665529,1,0,49662.30799999994,79.31:626.0;,79.31:626.0;,,0.0,79.31;
129,2024-08-09 23:40:00,79.705,79.71,79.71,79.68,9612.0,765888.0,1723218000,,,,,,,,,,,20.44520176978492,23.160725032654085,0.1171428571428582,88.62487456682948,-21.013176613032485,0,0,99557.63799999995,,,79.705:626.0;,247.2699999999975,
69,2024-08-14 22:40:00,79.34,79.41,79.41,79.33,26805.0,2126976.0,1723646400,,,,,,,,,1.0,,-4.425296678096835,-14.810012557412406,0.2773571428571415,60.404423976187786,-77.09974785087904,1,0,49811.45799999995,79.34:627.0;,79.34:627.0;,,0.0,79.34;
140,2024-08-14 23:51:00,79.66,79.71,79.71,79.66,62650.0,4991296.0,1723650660,,,,,,,,,,,71.50182556002451,-5.056368230847767,0.1395714285714271,40.49560335945904,13.507385346346348,0,0,99758.27799999995,,,79.66:627.0;,200.63999999999572,
184,2024-08-15 00:35:00,78.759,78.706,78.77,78.683,134435.0,10577536.0,1723653300,,,,,1.0,,1.0,,,,-8.660487532269407,-6.590731042140817,0.1783571428571418,21.574068140783822,-72.29010141895513,1,0,49982.589999999946,78.759:632.0;,78.759:632.0;,,0.0,78.759;
187,2024-08-15 00:38:00,78.1,78.35,78.35,78.1,339353.0,26529792.0,1723653480,,,,,,,,,,,-4.977456719247471,-6.590731042140817,0.1783571428571418,21.574068140783822,-70.3602654511474,0,0,99341.78999999995,,,78.1:632.0;,-416.4880000000038,
388,2024-08-20 03:59:00,83.885,83.9,83.9,83.835,116544.0,9779584.0,1724097540,1.0,,,,,,,,,,1.532860451692741,10.58702935772952,0.0827857142857157,104.4771603002854,-68.51557226887678,1,0,99341.78999999995,,,,0.0,
77,2024-08-20 22:48:00,81.55,81.688,81.688,81.55,56166.0,4584096.0,1724165280,1.0,,,,,,,,,,11.821420233869205,-0.689526657927793,0.2720714285714284,82.48127611789448,-71.48246954958049,1,0,49677.83999999995,81.55:609.0;,81.55:609.0;,,0.0,81.55;
100,2024-08-20 23:11:00,81.37,81.4,81.421,81.37,20522.0,1670016.0,1724166660,,,,,,,,,,,35.424300117537484,-2.643178618038718,0.2395000000000006,77.93826791894591,-27.9443207348958,0,0,99232.16999999995,,,81.37:609.0;,-109.6199999999955,
178,2024-08-21 00:29:00,80.95,80.995,80.995,80.935,14752.0,1194304.0,1724171340,,,,,,,,,1.0,,-6.2766696319086535,-9.383222242433636,0.1574999999999978,69.53416941514845,-73.91034382401588,1,0,49609.819999999956,80.95:613.0;,80.95:613.0;,,0.0,80.95;
188,2024-08-21 00:39:00,80.79,80.827,80.83,80.79,28455.0,2299456.0,1724171940,,,,,,,,,,,-4.548056679533982,-9.580627284314332,0.1607142857142857,65.37937772753486,-73.99699290113905,0,0,99134.08999999997,,,80.79:613.0;,-98.07999999999791,
8,2024-08-22 21:39:00,83.0,83.16,83.17,83.0,41809.0,3473584.0,1724333940,1.0,,,,,,,,,,55.93382583096714,15.344830912852672,0.2180714285714304,75.56439905740099,-53.390096756035234,1,0,49583.08999999997,83.0:597.0;,83.0:597.0;,,0.0,83.0;
41,2024-08-22 22:12:00,83.26,83.16,83.26,83.16,16869.0,1403312.0,1724335920,,,,,,,,,,,60.82116600893509,36.29449434369207,0.2982142857142875,76.73872979426464,6.065367039801367,0,0,99289.30999999997,,,83.26:597.0;,155.22000000000304,
118,2024-08-22 23:29:00,82.25,82.26,82.275,82.235,28707.0,2361344.0,1724340540,,,,,,,,,1.0,,2.529476240589238,-7.755180777893855,0.1669999999999995,75.21102209810151,-70.31604766278741,1,0,49774.80999999997,82.25:602.0;,82.25:602.0;,,0.0,82.25;
128,2024-08-22 23:39:00,82.11,82.115,82.14,82.11,17695.0,1453536.0,1724341140,,,,,,,1.0,,,,4.424095754140495,-11.459928443545849,0.1577142857142845,72.20546874945646,-71.50608284179728,1,0,262.4799999999668,82.25:602.0;82.11:603.0;,82.11:603.0;,,0.0,82.255;82.11;
132,2024-08-22 23:43:00,82.035,82.01,82.035,82.01,31541.0,2586880.0,1724341380,,,,,,,,,,,2.620958073205683,-13.229673279141792,0.1574999999999988,72.20546874945646,-73.03651391329612,0,0,49647.54999999997,82.11:603.0;,,82.035:602.0;,-129.43000000000205,82.11;
134,2024-08-22 23:45:00,81.87,81.895,81.905,81.86,116831.0,9565312.0,1724341500,,,,,,,,,,,1.9798427879753808,-14.601178915168065,0.163571428571428,72.20546874945646,-76.94942616225389,0,0,99015.15999999997,,,81.87:603.0;,-144.7199999999969,
135,2024-08-22 23:46:00,81.895,82.01,82.02,81.895,58505.0,4794048.0,1724341560,,,,,1.0,,,,,,4.600357336789124,-14.601178915168065,0.163571428571428,72.20546874945646,-73.59992846344424,1,0,49468.684999999976,81.895:605.0;,81.895:605.0;,,0.0,81.895;
206,2024-08-23 00:57:00,82.29,82.314,82.33,82.28,24545.0,2020320.0,1724345820,,,,,,,,,,,57.562619156369294,9.489925940734516,0.1088571428571459,67.378853603386,9.7924000108292,0,0,99254.13499999998,,,82.29:605.0;,238.9750000000062,
64,2024-08-26 22:35:00,80.76,80.63,80.76,80.63,118603.0,9569600.0,1724682900,1.0,,,,,,,,,,5.200075546344934,-13.429915558063882,0.6894999999999994,86.35055792478371,-72.84160883335905,1,0,49667.49499999997,80.76:614.0;,80.76:614.0;,,0.0,80.76;
196,2024-08-27 00:47:00,82.08,82.04,82.08,82.0,85160.0,6984704.0,1724690820,,,,,,,,,,1.0,101.52431770222351,15.167512824758262,0.1484999999999995,54.45523136722102,12.19633169592949,0,1,100064.61499999996,,,82.08:614.0;,810.4799999999958,82.16;
63,2024-08-28 22:34:00,80.188,80.17,80.19,80.17,27275.0,2186528.0,1724855640,1.0,,,,,,,,,,4.842728225643114,2.909433270899129,0.2604999999999994,14.527043686462951,-75.68815819931115,1,0,50107.49099999996,80.188:623.0;,80.188:623.0;,,0.0,80.188;
74,2024-08-28 22:45:00,79.765,79.84,79.9,79.765,226447.0,18065504.0,1724856300,,,,,,,,,,,14.447862471440132,-5.575233918289911,0.2186428571428566,14.527043686462951,-68.68048039379798,0,0,99801.08599999995,,,79.765:623.0;,-263.52900000000113,
175,2024-08-29 00:26:00,79.315,79.3,79.315,79.29,23537.0,1866240.0,1724862360,,,,,,,1.0,,,,3.295969258686668,-14.593541316043344,0.1214285714285706,5.634446531262377,-59.42485452354731,1,0,49832.635999999955,79.315:630.0;,79.315:630.0;,,0.0,79.315;
184,2024-08-29 00:35:00,79.25,79.324,79.324,79.25,39267.0,3113024.0,1724862900,,,,,,,,,1.0,,3.6248599585444903,-14.00214048976246,0.1247142857142853,3.169252222859768,-73.87667737939508,1,0,63.63599999995495,79.315:630.0;79.25:628.0;,79.25:628.0;,,0.0,79.35;79.25;
226,2024-08-29 01:17:00,79.395,79.355,79.395,79.355,19625.0,1557248.0,1724865420,,,,,,,,,,,85.53838399675043,-3.2467140295819945,0.1080714285714289,1.633878069800005,27.693131144852828,0,0,99942.54599999996,,,79.395:630.0;79.395:628.0;,141.45999999999643,
344,2024-09-04 03:15:00,82.01,82.015,82.03,82.01,8042.0,659392.0,1725390900,1.0,,,,,,,,,,6.849428709384348,-13.901843228758745,0.0649285714285718,61.98213284882088,-72.655805936024,1,0,49998.455999999955,82.01:609.0;,82.01:609.0;,,0.0,82.01;
358,2024-09-04 03:29:00,81.968,82.01,82.015,81.968,22125.0,1813888.0,1725391740,,,,,,,,,,,34.05929490321728,-11.986626876743117,0.0628571428571435,61.98213284882088,5.903002243959637,0,0,99916.96799999996,,,81.968:609.0;,-25.57800000000097,
