,dt,open,close,high,low,vol,turnover,ts,icon_1,icon_2,icon_11,icon_12,icon_13,icon_41,icon_34,icon_35,icon_38,icon_39,jw1,jw5,atr5,jw30,baijiao,buy_signal,sell_signal,cash,chicang,buy_detail,sell_detail,profit,max_zhiying_prices
4,2024-01-17 22:35:00,55.579,55.446,55.579,55.446,370498.0,205768704.0,1705502100,1.0,,,,,,,,,,44.24001161826246,3.2808853659831243,0.2176428571428564,85.17502640701423,-69.40248553727977,1,0,50034.479,55.579:899.0;,55.579:899.0;,,0.0,55.579;
15,2024-01-17 22:46:00,55.425,55.44,55.475,55.425,175311.0,97268224.0,1705502760,,,,,,,,,,,8.550202435256878,0.1190037626462299,0.254214285714285,85.17502640701423,-69.73766199922706,0,0,99861.554,,,55.425:899.0;,-138.44600000000312,
24,2024-01-17 22:55:00,55.054,54.959,55.054,54.959,419083.0,230476288.0,1705503300,,,,,,,,,1.0,,-11.272788522290512,-5.760819809288009,0.2863571428571418,85.17502640701423,-77.3213646931365,1,0,49872.522000000004,55.054:908.0;,55.054:908.0;,,0.0,55.054;
26,2024-01-17 22:57:00,55.075,55.053,55.126,55.053,221675.0,122241024.0,1705503420,,,,,1.0,,,,,,-11.696018872909242,-5.760819809288009,0.2863571428571418,85.17502640701423,-77.22046638667392,1,0,29.647000000004482,55.054:908.0;55.075:905.0;,55.075:905.0;,,0.0,55.075;55.075;
32,2024-01-17 23:03:00,54.805,54.825,54.858,54.805,225718.0,123820032.0,1705503780,,,,,,,1.0,,,,-14.060014883647046,-8.610999316996939,0.293214285714285,77.41397874709654,-78.03225083498099,1,0,29.647000000004482,55.054:908.0;55.075:905.0;,,,0.0,55.075;55.075;
94,2024-01-18 00:05:00,55.694,55.743,55.743,55.694,128996.0,71941120.0,1705507500,,1.0,,,,,,,,,113.75585294782522,26.408031145876837,0.177071428571428,70.31989515334774,76.45756593254781,0,1,50544.105,55.054:454.0;55.075:452.0;,,55.694:454;55.694:453;,570.9670000000002,55.719;55.719;
140,2024-01-18 00:51:00,55.762,55.745,55.779,55.742,83322.0,46515200.0,1705510260,,,,,,,,,,,61.292573595915314,54.14448760827759,0.1285714285714278,69.56042054012093,-27.097110649902053,0,0,101064.47700000001,,,55.762:454.0;55.762:452.0;,631.9559999999982,
349,2024-01-25 04:20:00,61.349,61.281,61.364,61.259,133464.0,81694720.0,1706127600,1.0,,,,,,,,,,7.089598873862755,4.360098096163739,0.217142857142857,89.31155884372575,-76.28287260859643,1,0,50574.250000000015,61.349:823.0;,61.349:823.0;,,0.0,61.349;
359,2024-01-25 04:30:00,61.197,61.186,61.228,61.186,127772.0,78118912.0,1706128200,,,,,,,,,,,-0.0523611272145885,-4.750454697219197,0.233357142857143,84.06529555730503,-71.82126659187861,0,0,100939.38100000002,,,61.197:823.0;,-125.095999999995,61.497;
37,2024-02-06 23:08:00,67.704,67.689,67.773,67.688,189644.0,128804864.0,1707232080,,,,,,,1.0,,,,-17.40217436904259,8.184467686497669,0.5265714285714286,85.04878052920077,-77.80303882730935,1,0,50499.90100000003,67.704:745.0;,67.704:745.0;,,0.0,67.704;
81,2024-02-06 23:52:00,67.868,67.901,67.91,67.861,96766.0,65819648.0,1707234720,,,,,,,,,,,80.2615810611506,-10.792758548977858,0.3391428571428574,80.86742163304336,44.6136009181946,0,0,101061.56100000002,,,67.868:745.0;,122.1800000000011,
291,2024-02-13 03:22:00,71.406,71.599,71.599,71.406,221604.0,158048256.0,1707765720,,,,,,,1.0,,,,13.285047654029071,-13.85958961252598,0.3336428571428566,87.37706367840386,-75.88943553335041,1,0,50577.519000000015,71.406:707.0;,71.406:707.0;,,0.0,71.406;
322,2024-02-13 03:53:00,71.98,72.042,72.042,71.974,142244.0,102760448.0,1707767580,,,,,,,,,,,96.79164061100018,-4.519219255648849,0.3118571428571438,81.57492770675242,71.08593703340625,0,0,101467.37900000002,,,71.98:707.0;,405.8179999999986,
13,2024-02-27 22:44:00,77.57,77.336,77.679,77.336,433984.0,337095168.0,1709045040,1.0,,,,,,,,1.0,,8.79467611232819,12.064524076104306,0.3902857142857152,83.85633821656134,-76.47932339754985,1,0,50736.59900000002,77.57:654.0;,77.57:654.0;,,0.0,77.57;
15,2024-02-27 22:46:00,77.716,77.778,77.778,77.626,253772.0,197627904.0,1709045160,,,,,1.0,,,,,,7.797795612036097,11.295931985196276,0.4296428571428571,83.85633821656134,-73.54941118025994,1,0,65.76700000002165,77.57:654.0;77.716:652.0;,77.716:652.0;,,0.0,77.716;77.716;
46,2024-02-27 23:17:00,78.547,78.679,78.679,78.547,117345.0,92430336.0,1709047020,,1.0,,,,,,,,,66.7974585784559,25.8978238413678,0.5014999999999991,82.53203721421357,58.98207277368667,0,1,51356.95800000002,77.57:327.0;77.716:326.0;,,78.547:327;78.547:326;,590.3850000000023,78.659;78.659;
100,2024-02-28 00:11:00,78.593,78.633,78.633,78.593,60440.0,47745024.0,1709050260,,,,,,,,,,,52.65540850982174,56.67533804455663,0.2587857142857167,81.26820295048,-7.523669287387897,0,0,102678.18700000003,,,78.593:327.0;78.593:326.0;,620.4230000000065,
211,2024-03-09 02:02:00,87.638,88.327,88.327,87.638,372688.0,326508544.0,1709920920,,,,,1.0,,,,,,15.971561969284124,-20.378365791383985,0.831857142857143,57.99723358279249,-74.64000667934522,1,0,51409.95700000003,87.638:585.0;,87.638:585.0;,,0.0,87.638;
235,2024-03-09 02:26:00,87.548,87.632,87.726,87.548,237216.0,206675968.0,1709922360,,,,,,,,,,,24.650738645135466,-20.731816333016454,0.6933571428571444,57.99723358279249,-30.91464057486432,0,0,102625.53700000004,,,87.548:585.0;,-52.650000000001995,
6,2024-03-12 21:37:00,87.316,87.433,87.433,87.278,281136.0,245538304.0,1710250620,1.0,,,,,,,,,,82.74198690499081,17.256808727202475,0.5512142857142877,6.34050042713163,78.98799689707874,1,0,51371.04500000004,87.316:587.0;,87.316:587.0;,,0.0,87.316;
15,2024-03-12 21:46:00,86.84,86.628,86.84,86.522,364106.0,315708416.0,1710251160,,,,,,,,,1.0,,76.95123454342175,30.921302028123776,0.6085000000000035,6.34050042713163,49.143175938948026,0,0,102346.12500000004,,,86.84:587.0;,-279.41199999999947,
203,2024-03-19 00:54:00,87.746,87.708,87.746,87.653,98844.0,85876736.0,1710780840,,,1.0,,,,,,,,9.955928389265196,0.7900862436137004,0.3499999999999973,37.41032511335428,-74.13840645659067,1,0,51190.207000000046,87.746:583.0;,87.746:583.0;,,0.0,87.746;
208,2024-03-19 00:59:00,87.24,87.526,87.526,87.24,196556.0,170688512.0,1710781140,,,,,,,,,,,-1.0622563251675672,-2.0611723725611317,0.3722857142857115,37.41032511335428,-76.73243865439373,0,0,102051.12700000004,,,87.24:583.0;,-294.99800000000016,
63,2024-03-26 22:34:00,94.246,94.214,94.246,94.146,198851.0,187576320.0,1711463640,,,,,,,1.0,,1.0,,-0.989929995446012,16.160381471933192,0.5705714285714285,79.51456694531777,-76.6011854621496,1,0,51064.04100000004,94.246:541.0;,94.246:541.0;,,0.0,94.246;
135,2024-03-26 23:46:00,94.431,94.496,94.532,94.431,97574.0,91987968.0,1711467960,,,,,,,,,,,54.09870842285673,8.451103237531527,0.2942857142857156,75.00860131641139,-3.85107682312583,0,0,102151.21200000004,,,94.431:541.0;,100.08500000000123,
11,2024-04-04 21:42:00,90.012,89.829,90.012,89.829,164451.0,148000000.0,1712238120,1.0,,,,,,,,,,87.55698013655261,12.382634245245228,0.3825000000000003,49.52915020344166,78.6271763739861,1,0,51114.40800000004,90.012:567.0;,90.012:567.0;,,0.0,90.012;
22,2024-04-04 21:53:00,89.455,89.515,89.515,89.337,222217.0,198697984.0,1712238780,,,,,,,,,,,58.040019548993214,17.644740562273967,0.4168571428571427,49.52915020344166,-32.02964821262142,0,0,101835.39300000004,,,89.455:567.0;,-315.8190000000012,
282,2024-04-05 02:13:00,88.862,88.814,88.862,88.799,97792.0,86562816.0,1712254380,,,,,,,1.0,,1.0,,-3.335124796713899,17.558553229904163,0.1297142857142859,51.96547888137109,-71.53041497212897,1,0,50828.60500000004,88.862:574.0;,88.862:574.0;,,0.0,88.862;
286,2024-04-05 02:17:00,88.681,88.714,88.729,88.603,186716.0,165111808.0,1712254620,,,,,,,,,,,-4.698563091474135,12.411543068467653,0.1389285714285709,51.96547888137109,-76.03722741792016,0,0,101731.49900000004,,,88.681:574.0;,-103.8939999999985,
9,2024-04-05 21:40:00,86.308,86.107,86.308,86.107,250817.0,216349440.0,1712324400,1.0,,,,,,,,,,66.89400494143759,-2.6912276196173863,0.5037857142857172,19.760053121481636,74.6215740305617,1,0,50896.087000000036,86.308:589.0;,86.308:589.0;,,0.0,86.308;
16,2024-04-05 21:47:00,87.209,87.127,87.273,87.095,156473.0,136444416.0,1712324820,,1.0,,,,,,,,,92.31076690859878,3.436219427076111,0.5625714285714309,19.760053121481636,82.3656193706541,0,1,76622.74200000004,86.308:294.0;,,87.209:295;,265.7949999999989,87.294;
57,2024-04-05 22:28:00,86.704,86.765,86.769,86.693,162082.0,140777472.0,1712327280,,,,,,,,,,,50.49331078578021,34.98092181023365,0.5540714285714289,20.93181780566745,-31.29517809645793,0,0,102113.71800000004,,,86.704:294.0;,116.42399999999606,
84,2024-04-12 22:55:00,88.35,88.501,88.501,88.35,122277.0,108223488.0,1712933700,,,,,,,,,1.0,,-4.73002048487357,-16.853821870142454,0.3154285714285722,104.89576061856104,-76.93485889027795,1,0,51135.76800000004,88.35:577.0;,88.35:577.0;,,0.0,88.35;
153,2024-04-13 00:04:00,89.182,89.208,89.267,89.167,109788.0,97857536.0,1712937840,,,,,,,,,,,80.2234252659386,11.584760118835646,0.2322857142857149,97.88401866477427,14.721470600240822,0,0,102593.78200000004,,,89.182:577.0;,480.0640000000045,
312,2024-04-13 02:43:00,87.86,87.967,87.967,87.86,120294.0,105488384.0,1712947380,,,,,,,1.0,,,,-7.631515944842683,-3.3218563556861085,0.1762857142857135,84.44962336929578,-75.9937898020146,1,0,51547.12200000004,87.86:581.0;,87.86:581.0;,,0.0,87.86;
317,2024-04-13 02:48:00,87.752,87.681,87.784,87.681,161378.0,141301760.0,1712947680,,,,,,,,,,,-8.168569461803266,-3.921185650634186,0.1740714285714273,84.44962336929578,-72.4189096221401,0,0,102531.03400000004,,,87.752:581.0;,-62.74800000000238,
321,2024-04-13 02:52:00,87.684,87.708,87.724,87.683,89698.0,78442496.0,1712947920,,,,,1.0,,,,,,-5.451735609902364,-5.446240646120849,0.1930714285714267,84.44962336929578,-70.45314230021998,1,0,51498.94600000005,87.684:582.0;,87.684:582.0;,,0.0,87.684;
386,2024-04-13 03:57:00,88.153,88.126,88.196,88.126,165524.0,145608704.0,1712951820,,,,,,,,,,,96.52939291233317,27.24401390772855,0.2202142857142845,76.81324729692605,44.94587319969924,0,0,102803.99200000006,,,88.153:582.0;,272.95800000000486,88.42;
234,2024-04-16 01:25:00,87.424,87.498,87.498,87.422,83048.0,72482816.0,1713201900,,,,,,,1.0,,,,34.9056824841628,8.709575106351991,0.267714285714287,54.51046469322986,-75.81901589892928,1,0,51486.10400000005,87.424:587.0;,87.424:587.0;,,0.0,87.424;
238,2024-04-16 01:29:00,87.044,86.837,87.044,86.837,253586.0,219322368.0,1713202140,,,,,,,,,,,11.881703715450698,8.709575106351991,0.267714285714287,54.51046469322986,-78.25224894961018,0,0,102580.93200000006,,,87.044:587.0;,-223.0600000000057,
242,2024-04-16 01:33:00,86.667,86.626,86.677,86.549,96876.0,83587072.0,1713202380,,,,,1.0,,,,,,1.806086781203959,4.3098618847622845,0.2930714285714302,43.70924437134849,-76.56184782528292,1,0,51187.401000000056,86.667:593.0;,86.667:593.0;,,0.0,86.667;
250,2024-04-16 01:41:00,86.562,86.707,86.707,86.499,135174.0,116678656.0,1713202860,,,,,,,,,,,2.618372282620996,-0.4826872163149573,0.3223571428571442,43.70924437134849,-64.9923074141985,0,0,102518.66700000004,,,86.562:593.0;,-62.26500000000236,
351,2024-04-16 03:22:00,86.249,86.359,86.359,86.233,110952.0,95477760.0,1713208920,,,1.0,,,,,,,,-6.029414158339279,-4.305248141255724,0.2406428571428601,17.947093001435064,-73.10296085408216,1,0,51200.512000000046,86.249:595.0;,86.249:595.0;,,0.0,86.249;
359,2024-04-16 03:30:00,86.124,86.033,86.124,86.02,173776.0,149139456.0,1713209400,,,,,,,,,,,-2.705448182881085,-5.803084963606679,0.2496428571428605,9.20679127099703,-70.18751170093832,0,0,102444.29200000004,,,86.124:595.0;,-74.375,86.371;
86,2024-04-17 22:57:00,85.819,85.785,85.819,85.698,111433.0,95791104.0,1713365820,,,,,,,1.0,,,,41.03196910687217,-5.4704529683207,0.4353571428571428,26.43177799513316,-71.9214079199753,1,0,51296.16800000004,85.819:596.0;,85.819:596.0;,,0.0,85.819;
122,2024-04-17 23:33:00,85.949,85.817,85.949,85.817,135814.0,116760576.0,1713367980,,,,,,,,,,,60.46172836457686,-2.8181146500584475,0.3354285714285682,19.85989196370697,39.47746371033108,0,0,102521.77200000004,,,85.949:596.0;,77.47999999999729,
198,2024-04-18 00:49:00,84.555,84.663,84.663,84.555,128460.0,108320768.0,1713372540,,,1.0,,,,,,,,6.430896116484519,-15.751694951601516,0.2782857142857163,12.066991609810673,-72.77590019470226,1,0,51365.99700000004,84.555:605.0;,84.555:605.0;,,0.0,84.555;
228,2024-04-18 01:19:00,84.87,84.907,84.938,84.857,109068.0,92205056.0,1713374340,,,,,,,,,,,90.07833247233503,-5.525182550622532,0.2851428571428564,8.211060027789003,49.83992023963594,0,0,102712.34700000004,,,84.87:605.0;,190.57499999999862,
8,2024-04-18 21:39:00,83.52,83.02,83.52,83.02,452798.0,376848640.0,1713447540,1.0,,,,,,,,1.0,,13.026996965823116,16.62140427822284,0.671999999999999,4.39544766459391,-75.48830199919814,1,0,51431.06700000004,83.52:614.0;,83.52:614.0;,,0.0,83.52;
11,2024-04-18 21:42:00,82.981,83.286,83.286,82.944,417055.0,346831360.0,1713447720,,,,,,,1.0,,,,6.912949822426299,12.839730020471784,0.7764285714285707,4.39544766459391,-76.00061361581865,1,0,148.80900000004476,83.52:614.0;82.981:618.0;,82.981:618.0;,,0.0,83.52;82.981;
18,2024-04-18 21:49:00,84.187,84.563,84.563,84.165,347333.0,293166592.0,1713448140,,1.0,,,,,,,,,21.207148134477208,14.226570340392025,0.8437142857142855,4.39544766459391,75.81348313310451,0,1,52008.00100000004,83.52:307.0;82.981:309.0;,,84.187:307;84.187:309;,577.4230000000015,84.35;84.35;
43,2024-04-18 22:14:00,84.863,84.894,84.905,84.863,94802.0,80484352.0,1713449640,,,,,,,,,,1.0,47.95146123497429,28.968010532002168,0.9428571428571432,5.236046123242446,66.85598353134338,0,1,104283.60900000004,,,84.863:307.0;84.863:309.0;,993.8390000000027,84.971;84.971;
157,2024-04-20 00:08:00,80.969,80.901,81.005,80.901,177494.0,143499264.0,1713542880,,,,,1.0,,,,,,-4.5826934271971,4.506524426194986,0.3617142857142882,25.44884360585019,-76.98266979207277,1,0,52220.542000000045,80.969:643.0;,80.969:643.0;,,0.0,80.969;
165,2024-04-20 00:16:00,80.529,80.584,80.668,80.529,216240.0,173830144.0,1713543360,,,,,,,,,,,-5.677454202846292,0.1176912046875457,0.3704285714285739,25.44884360585019,-76.3012231200751,0,0,104000.68900000004,,,80.529:643.0;,-282.91999999999854,
181,2024-04-20 00:32:00,80.481,80.559,80.589,80.481,163512.0,131100672.0,1713544320,,,1.0,,,,,,,,1.233052044615036,-4.266506866344365,0.3448571428571451,21.474058212391967,-72.88446131122451,1,0,51929.48200000005,80.481:647.0;,80.481:647.0;,,0.0,80.481;
227,2024-04-20 01:18:00,80.842,81.046,81.046,80.842,181492.0,146726912.0,1713547080,,,,,,,,,,,97.12287346320934,7.264247574140846,0.3430714285714294,19.84136919883728,57.93130629317468,0,0,104234.25600000005,,,80.842:647.0;,233.56700000000274,
278,2024-04-20 02:09:00,79.277,79.044,79.277,79.033,294208.0,232370176.0,1713550140,,,,,1.0,,,,,,-0.2201610327057395,0.1166044841711055,0.3509285714285722,14.00116955703376,-60.38356990910549,1,0,52149.26700000005,79.277:657.0;,79.277:657.0;,,0.0,79.277;
286,2024-04-20 02:17:00,78.477,78.673,78.705,78.449,406300.0,318570496.0,1713550620,,,,,,,,,,,11.88035900361507,1.332549724292072,0.4022142857142867,14.00116955703376,-48.26119414065171,0,0,103708.65600000005,,,78.477:657.0;,-525.5999999999981,
304,2024-04-25 02:35:00,79.867,79.791,79.877,79.771,98160.0,78227456.0,1713983700,,,1.0,,1.0,,,,,,-14.541695120472632,12.038921626768476,0.3084999999999991,79.17297121929136,-76.02578332599809,1,0,51874.97300000004,79.867:649.0;,79.867:649.0;,,0.0,79.867;
323,2024-04-25 02:54:00,79.496,79.536,79.561,79.496,183972.0,145963008.0,1713984840,,,,,,,,,,,9.325935842412925,6.987757027755023,0.3105714285714285,79.17297121929136,-73.97840142770424,0,0,103467.87700000004,,,79.496:649.0;,-240.77900000000605,
15,2024-04-29 21:46:00,85.46,85.563,85.563,85.272,309132.0,264216576.0,1714398360,,,,,,,1.0,,1.0,,-17.091625744406812,19.390330873226414,0.4540714285714295,102.663402209775,-78.68460769518407,1,0,51764.57700000004,85.46:605.0;,85.46:605.0;,,0.0,85.46;
39,2024-04-29 22:10:00,87.05,86.994,87.05,86.988,144467.0,125810688.0,1714399800,,1.0,,,,,,,,,43.673286168131774,15.453632250659638,0.6075714285714297,100.84428888162203,71.30213393235,0,1,78140.72700000004,85.46:302.0;,,87.05:303;,481.770000000001,87.149;
54,2024-04-29 22:25:00,87.147,87.104,87.147,87.049,349043.0,304154624.0,1714400700,,,,,,,,,,1.0,106.30861317961096,26.763461391313143,0.6375714285714297,100.84428888162203,62.01059647336356,0,1,104459.12100000004,,,87.147:302.0;,509.47400000000357,87.455;
224,2024-05-01 01:15:00,86.464,86.492,86.492,86.454,47424.0,40798208.0,1714497300,,,,,,,1.0,,,,5.377263184290783,-4.518721887045999,0.2671428571428578,84.13590623335904,-74.32058436356893,1,0,52234.86500000004,86.464:604.0;,86.464:604.0;,,0.0,86.464;
287,2024-05-01 02:18:00,86.764,86.789,86.823,86.764,25070.0,21641216.0,1714501080,,,,,,,,,,,55.80607030707657,12.772684047160524,0.2362857142857158,79.4139422594128,0.2864798674146356,0,0,104640.32100000004,,,86.764:604.0;,181.19999999999828,
152,2024-05-02 00:03:00,81.326,81.613,81.673,81.326,274890.0,223815680.0,1714579380,,,1.0,,,,,,,,-1.0673657720055658,-7.755318037010014,0.4487857142857123,30.977590276224248,-78.00173530698498,1,0,52347.703000000045,81.326:643.0;,81.326:643.0;,,0.0,81.326;
201,2024-05-02 00:52:00,81.777,81.762,81.779,81.738,53804.0,43862016.0,1714582320,,,,,,,,,,,67.80140015017636,-0.8379184787257472,0.3689999999999977,23.323911031440787,-20.30698809388348,0,0,104930.31400000004,,,81.777:643.0;,289.9930000000049,
236,2024-05-17 01:27:00,94.422,94.481,94.481,94.422,63020.0,59310080.0,1715880420,,,,,,,,,1.0,,31.371177744210115,14.3676759718728,0.1890714285714289,99.58354989151964,-60.63648821890714,1,0,52526.10400000004,94.422:555.0;,94.422:555.0;,,0.0,94.422;
259,2024-05-17 01:50:00,94.342,94.326,94.371,94.289,64090.0,60262400.0,1715881800,,,,,,,,,,,34.42770719654901,7.649020184354583,0.2245714285714299,96.92763499208482,-35.426357439754334,0,0,104885.91400000005,,,94.342:555.0;,-44.399999999999054,
299,2024-05-23 02:30:00,93.475,93.399,93.475,93.399,109642.0,102123520.0,1716402600,,,,,,,1.0,,,,23.03142924999028,18.548053812446227,0.3514285714285685,64.82358048607631,-73.32380517628225,1,0,52446.43900000005,93.475:561.0;,93.475:561.0;,,0.0,93.475;
349,2024-05-23 03:20:00,93.716,93.601,93.716,93.512,178744.0,166912000.0,1716405600,,,,,,,,,,,80.60194436747781,22.876558890312964,0.3080000000000008,61.47750937689207,13.345210714194792,0,0,105021.11500000005,,,93.716:561.0;,135.2009999999998,
10,2024-05-24 21:41:00,103.479,103.721,103.721,103.469,281742.0,291594240.0,1716558060,1.0,,,,,,,,,,56.02478132136065,10.156420427980194,0.7732857142857179,87.4653903792883,-49.17981918848393,1,0,52557.262000000046,103.479:507.0;,103.479:507.0;,,0.0,103.479;
18,2024-05-24 21:49:00,104.187,104.07,104.341,104.07,191784.0,199780352.0,1716558540,,1.0,,,,,,,,,62.30801559943097,14.888054513994987,0.8135000000000038,87.4653903792883,42.03614384567928,0,1,79020.76000000004,103.479:253.0;,,104.187:254;,179.8319999999996,104.543;
107,2024-05-24 23:18:00,104.546,104.58,104.58,104.517,119132.0,126681088.0,1716563880,,,,,,,,,,,87.56320090770438,71.8809696781751,0.3000714285714281,88.99849671073912,-6.735835263500553,0,0,105470.89800000004,,,104.546:253.0;,269.95100000000184,
356,2024-05-31 03:27:00,111.782,111.536,111.782,111.536,142240.0,158158848.0,1717097220,,,,,1.0,,,,,,7.136068195798032,15.57684159644846,0.3139285714285721,76.91166180388626,-51.379141343398096,1,0,52821.576000000045,111.782:471.0;,111.782:471.0;,,0.0,111.782;
358,2024-05-31 03:29:00,111.372,111.759,111.78,111.372,307808.0,342462464.0,1717097340,,,,,,,,,,,7.572009211820912,15.57684159644846,0.3139285714285721,76.91166180388626,-67.6693676678259,0,0,105277.78800000004,,,111.372:471.0;,-193.1099999999984,
381,2024-05-31 03:52:00,110.141,110.541,110.541,110.141,401928.0,443027456.0,1717098720,,,1.0,,,,,,,,5.249126059140703,1.1942993571702942,0.4557142857142854,73.27636071367871,-66.67719550067014,1,0,105277.78800000004,,,,0.0,
66,2024-06-11 22:37:00,120.65,120.47,120.65,120.47,840184.0,101234688.0,1718116620,,,,,,,,,1.0,,-5.6364682437208415,16.168418384121537,0.8692142857142845,53.01232485129964,-75.06222271978469,1,0,52674.38800000004,120.65:436.0;,120.65:436.0;,,0.0,120.65;
119,2024-06-11 23:30:00,120.735,120.68,120.77,120.68,321128.0,38579200.0,1718119800,,,,,,,,,,,48.959524111913225,9.791621535827218,0.4643571428571422,49.482788684806295,37.47896308877665,0,0,105314.84800000004,,,120.735:436.0;,37.059999999997274,
135,2024-06-11 23:46:00,119.315,119.624,119.624,119.135,1052048.0,125644800.0,1718120760,,,,,,,1.0,,,,-6.607961505023866,-0.5150510434825861,0.4550000000000003,49.482788684806295,-75.59924312110046,1,0,52696.93300000004,119.315:441.0;,119.315:441.0;,,0.0,119.315;
143,2024-06-11 23:54:00,118.92,119.35,119.35,118.92,1178208.0,140406784.0,1718121240,,,,,,,,,,,-6.559075373112179,-2.763774889111062,0.4595714285714284,49.482788684806295,-74.99173930027334,0,0,105140.65300000005,,,118.92:441.0;,-174.19499999999823,
182,2024-06-21 00:33:00,133.44,133.585,133.729,133.44,1531472.0,202919936.0,1718901180,,,1.0,,,,,,,,2.1926573419934883,9.451279473180875,0.6892142857142878,79.76325080366743,-71.95039608640796,1,0,52698.73300000005,133.44:393.0;,133.44:393.0;,,0.0,133.44;
184,2024-06-21 00:35:00,132.05,132.57,132.57,132.05,2889312.0,377716736.0,1718901300,,,,,,,,,,,2.653538045165991,4.985154153415337,0.8439285714285732,79.76325080366743,-73.02704589543946,0,0,104594.38300000006,,,132.05:393.0;,-546.2699999999946,
24,2024-06-21 21:55:00,125.46,124.97,125.46,124.97,2464024.0,307318784.0,1718978100,1.0,,,,,,,,1.0,,-13.7201498832858,7.549272116311485,1.410499999999998,14.17295246274884,-76.43822277872134,1,0,52403.02300000006,125.46:416.0;,125.46:416.0;,,0.0,125.46;
69,2024-06-21 22:40:00,125.25,125.53,125.53,125.25,1010864.0,125954048.0,1718980800,,,,,,,,,,,42.38121285879933,11.407179783644125,1.3867857142857107,1.6940772157227857,-55.16134797428095,0,0,104507.02300000006,,,125.25:416.0;,-87.3599999999974,
15,2024-06-24 21:46:00,122.841,122.87,122.94,122.46,2619520.0,320923648.0,1719236760,1.0,,,,,,,,,,5.822589247986102,6.742821613732673,0.92592857142857,4.376084287804588,-73.88702228914619,1,0,52299.59800000006,122.841:425.0;,122.841:425.0;,,0.0,122.841;
20,2024-06-24 21:51:00,121.5,121.78,121.88,121.5,3033896.0,369145344.0,1719237060,,,,,,,,,,,-5.045169089337783,3.9974128579544015,1.042357142857142,4.376084287804588,-77.27627802050785,0,0,103937.09800000006,,,121.5:425.0;,-569.9249999999975,
21,2024-06-24 21:52:00,121.8,122.255,122.255,121.8,2113144.0,257652736.0,1719237120,,,,,,,,,1.0,,-4.720973673345327,3.9974128579544015,1.042357142857142,4.376084287804588,-77.11998508672934,1,0,51684.89800000006,121.8:429.0;,121.8:429.0;,,0.0,121.8;
54,2024-06-24 22:25:00,121.93,121.864,122.03,121.864,1226968.0,149497856.0,1719239100,,,,,,,,,,,30.63159962826528,11.074957872451584,1.2554999999999998,2.0946456828208966,-68.13317033273438,0,0,103992.86800000006,,,121.93:429.0;,55.770000000004146,
61,2024-06-24 22:32:00,121.45,121.57,121.665,121.45,1887544.0,229396480.0,1719239520,,,,,,,1.0,,,,14.2624459543989,8.222584956609253,1.2962142857142862,-0.8467088734686286,-75.71942767195975,1,0,51769.36800000006,121.45:430.0;,121.45:430.0;,,0.0,121.45;
74,2024-06-24 22:45:00,119.303,119.28,119.56,119.28,8562288.0,1025841152.0,1719240300,,,,,,,,,,,2.4412843223400884,3.8393283642981615,1.0496428571428569,-0.8467088734686286,-76.90143708107489,0,0,103069.65800000005,,,119.303:430.0;,-923.2100000000024,
81,2024-06-24 22:52:00,118.98,119.145,119.164,118.98,2628896.0,313114624.0,1719240720,,,1.0,,,,,,,,-0.7175782656422385,1.903022769273207,1.1076428571428565,-0.8467088734686286,-73.2325930286678,1,0,50837.43800000005,118.98:439.0;,118.98:439.0;,,0.0,118.98;
116,2024-06-24 23:27:00,119.2,119.04,119.2,119.015,1298480.0,154324992.0,1719242820,,,,,,,,,,,58.720697604803846,11.082341448688446,0.9823571428571428,-1.7043505243930213,-40.73052960057351,0,0,103166.23800000006,,,119.2:439.0;,96.5799999999995,
84,2024-06-26 22:55:00,124.82,125.02,125.02,124.711,1032528.0,128500736.0,1719413700,,,,,,,1.0,,,,0.5039620330419012,16.689664510485386,0.8354285714285743,56.28747383557884,-72.35488822630747,1,0,51615.57800000006,124.82:413.0;,124.82:413.0;,,0.0,124.82;
91,2024-06-26 23:02:00,124.07,123.766,124.089,123.75,1670656.0,206325760.0,1719414120,,,,,,,,,,,-4.846713172036523,8.85424579328074,0.8572142857142891,57.37834928600691,-75.22564472241461,0,0,102856.48800000006,,,124.07:413.0;,-309.75,
47,2024-07-11 22:18:00,130.72,131.031,131.031,130.72,1257760.0,164728832.0,1720707480,,,,,,,1.0,,,,-12.90054926702583,1.5722413865790088,0.9358571428571432,94.97312311247262,-77.77876270298194,1,0,51483.52800000006,130.72:393.0;,130.72:393.0;,,0.0,130.72;
73,2024-07-11 22:44:00,130.74,130.726,130.751,130.655,1025896.0,133983232.0,1720709040,,,,,,,,,,,29.36590002036972,-7.563851657966907,1.0885714285714252,88.69663551826238,-48.30826397912505,0,0,102864.34800000006,,,130.74:393.0;,7.860000000004021,
123,2024-07-11 23:34:00,128.065,128.1,128.24,127.835,1408240.0,179623936.0,1720712040,,,1.0,,,,,,,,2.141783211696868,-20.98279910373718,0.8173571428571397,69.60028018661467,-69.62207583625964,1,0,51510.283000000054,128.065:401.0;,128.065:401.0;,,0.0,128.065;
166,2024-07-12 00:17:00,129.24,129.35,129.35,129.12,741056.0,95375360.0,1720714620,,,,,,,,,,,104.00956655500804,-10.17513064861216,0.7432857142857198,60.80040887428103,76.52539797574809,0,0,103335.52300000006,,,129.24:401.0;,471.17500000000456,
275,2024-07-12 02:06:00,127.37,127.531,127.55,127.37,653744.0,82726912.0,1720721160,,,,,1.0,,,,,,-4.873192761927939,0.5555458670580435,0.4096428571428581,26.179356742496736,-73.86758129980647,1,0,52005.41300000006,127.37:403.0;,127.37:403.0;,,0.0,127.37;
345,2024-07-12 03:16:00,129.158,129.09,129.179,129.09,418048.0,53579776.0,1720725360,,,,,,,,,,,84.34626818595132,66.94405084191675,0.4008571428571435,14.61951743106752,-6.869095916698489,0,0,104056.08700000006,,,129.158:403.0;,720.5639999999929,
19,2024-07-15 21:50:00,128.815,128.55,128.835,128.52,997280.0,128430592.0,1721051400,,,,,1.0,,,,,,27.92970605608462,18.592158949280247,0.8737857142857105,36.46086612437844,-68.0627464380444,1,0,52143.64200000006,128.815:403.0;,128.815:403.0;,,0.0,128.815;
114,2024-07-15 23:25:00,130.43,130.43,130.5,130.43,318576.0,41447424.0,1721057100,,1.0,,,,,,,,,100.44998517309016,34.71809000519373,0.3823571428571455,32.62907399156826,43.71880874826184,0,1,78490.50200000007,128.815:201.0;,,130.43:202;,326.23000000000184,130.57;
119,2024-07-15 23:30:00,129.98,129.79,129.995,129.74,694752.0,90134528.0,1721057400,,,,,,,,,,,67.75148286946384,34.94280069821998,0.3860714285714307,32.46779878622549,-23.026312874461546,0,0,104616.48200000006,,,129.98:201.0;,234.1649999999984,
35,2024-07-17 22:06:00,119.3,119.209,119.3,119.185,2042592.0,243321856.0,1721225160,1.0,,,,,,,,1.0,,-11.875788649534726,16.28262690960389,1.026142857142856,11.017449878133348,-77.54472127113387,1,0,52363.08200000006,119.3:438.0;,119.3:438.0;,,0.0,119.3;
85,2024-07-17 22:56:00,119.21,119.196,119.32,119.196,649792.0,77312000.0,1721228160,,,,,,,,,,,79.49995849831062,3.7555169394164807,0.7620000000000015,9.515987644115434,74.05221413536422,0,0,104577.06200000006,,,119.21:438.0;,-39.420000000001494,
194,2024-07-18 00:45:00,117.4,117.09,117.4,117.09,1262912.0,148187136.0,1721234700,,,,,,,1.0,,,,4.127553213583656,-5.856841788863811,0.4385714285714306,5.979289052274929,-68.73732393717728,1,0,52334.06200000006,117.4:445.0;,117.4:445.0;,,0.0,117.4;
262,2024-07-18 01:53:00,118.231,117.99,118.231,117.99,1035136.0,122300416.0,1721238780,,,,,,,,,,,54.28459200746792,35.2463495220827,0.490714285714285,5.591345563113897,4.797031280728509,0,0,104946.85700000006,,,118.231:445.0;,369.79499999999507,
115,2024-07-18 23:26:00,116.77,117.065,117.065,116.77,1066736.0,124255232.0,1721316360,,,1.0,,,,,,,,-5.717819863614572,17.07488792805715,0.7656428571428587,15.996207234919613,-78.10373717238177,1,0,52517.127000000066,116.77:449.0;,116.77:449.0;,,0.0,116.77;
191,2024-07-19 00:42:00,120.049,119.965,120.049,119.965,527600.0,63326208.0,1721320920,,1.0,,,,,,,,,107.01857036265348,39.92512214187991,0.6595000000000013,15.07502279182692,44.02495600447376,0,1,79528.15200000006,116.77:224.0;,,120.049:225;,737.7750000000024,120.2;
218,2024-07-19 01:09:00,119.91,120.2,120.21,119.91,468576.0,56250368.0,1721322540,,,,,,,,,,,70.70767670013981,59.28061944503396,0.5677857142857141,18.17332531478801,-24.688706106549933,0,0,106387.99200000006,,,119.91:224.0;,703.3600000000001,
200,2024-07-20 00:51:00,118.371,118.52,118.52,118.355,355768.0,42146816.0,1721407860,,,,,,,1.0,,,,-5.541090740342646,-6.825089615214935,0.4046428571428545,33.780451754457424,-74.93104728967478,1,0,53239.41300000006,118.371:449.0;,118.371:449.0;,,0.0,118.371;
213,2024-07-20 01:04:00,118.27,118.31,118.312,118.21,492112.0,58241024.0,1721408640,,,,,,,,,,,26.968210751855946,-5.997395247747825,0.3947142857142834,33.27179386847217,28.003310808568628,0,0,106342.64300000005,,,118.27:449.0;,-45.34899999999959,
298,2024-07-24 02:29:00,122.35,122.245,122.355,122.24,303344.0,37091328.0,1721759340,,,,,,,,,1.0,,0.048004040978995,-4.726951002408868,0.1853571428571417,110.7640871320026,-71.52366967444638,1,0,53242.74300000006,122.35:434.0;,122.35:434.0;,,0.0,122.35;
314,2024-07-24 02:45:00,122.305,122.34,122.37,122.305,223088.0,27297792.0,1721760300,,,,,,,,,,,15.912460236579903,-9.101488081678156,0.2042142857142853,108.48065429424923,-46.79709646608042,0,0,106323.11300000007,,,122.305:434.0;,-19.529999999994573,
139,2024-07-24 23:50:00,117.389,117.215,117.389,117.215,583520.0,68120576.0,1721836200,,,,,,,1.0,,1.0,,13.27428526077506,-4.303667727221843,0.3358571428571447,37.09191723201633,-73.29729981784882,1,0,53263.28500000007,117.389:452.0;,117.389:452.0;,,0.0,117.389;
149,2024-07-25 00:00:00,116.858,116.865,116.9,116.84,2459464.0,286426112.0,1721836800,,,,,,,,,,,13.438384257963785,-5.467445714694421,0.3594285714285732,26.81001490025372,-50.21477578234168,0,0,106083.10100000007,,,116.858:452.0;,-240.01199999999625,
157,2024-07-25 00:08:00,115.97,115.94,116.07,115.94,958184.0,110874624.0,1721837280,,,,,1.0,,,,,,-0.732523511827992,-6.319701578156181,0.3583571428571446,26.81001490025372,-69.70269711749046,1,0,52968.841000000066,115.97:458.0;,115.97:458.0;,,0.0,115.97;
174,2024-07-25 00:25:00,115.94,115.99,115.995,115.9,730560.0,84502528.0,1721838300,,,,,,,,,,,30.07739360674053,-3.373869279780415,0.4318571428571433,26.81001490025372,39.64725228569355,0,0,106069.36100000006,,,115.94:458.0;,-13.74000000000052,
361,2024-07-25 03:32:00,114.01,113.995,114.02,113.93,1052352.0,120623104.0,1721849520,,,1.0,,,,,,,,6.584091178107137,8.35547884632981,0.4540714285714295,-12.069794891702712,-77.06488954193462,1,0,106069.36100000006,,,,0.0,
5,2024-07-25 21:36:00,111.44,110.83,111.44,110.83,3623226.0,401972736.0,1721914560,1.0,,,,,,,,1.0,,16.584362387338857,14.988972994949757,0.8929999999999997,-17.85498298800377,-69.85869821823992,1,0,53135.36100000006,111.44:475.0;,111.44:475.0;,,0.0,111.44;
8,2024-07-25 21:39:00,111.83,111.62,111.9,111.62,1497992.0,167084032.0,1721914740,,,,,1.0,,,,,,11.311812151388024,14.988972994949757,0.8929999999999997,-17.85498298800377,-69.61599831937272,1,0,127.94100000006438,111.44:475.0;111.83:474.0;,111.83:474.0;,,0.0,111.83;111.83;
14,2024-07-25 21:45:00,112.717,112.753,112.753,112.565,1408076.0,158370816.0,1721915100,,1.0,,,,,,,,,27.987929160896456,18.67834999771322,1.0158571428571417,-17.85498298800377,67.51611752598203,0,1,53668.51600000006,111.44:237.0;111.83:237.0;,,112.717:238;112.717:237;,514.1450000000004,113.17;113.17;
24,2024-07-25 21:55:00,111.4,111.255,111.4,111.16,1696924.0,188688384.0,1721915700,,,,,,,,,,,16.777601244198877,16.981389758345486,1.1715714285714287,-17.85498298800377,-53.96312674456022,0,0,106472.11600000007,,,111.4:237.0;111.4:237.0;,-111.38999999999636,
30,2024-07-25 22:01:00,109.784,109.65,109.784,109.61,1849376.0,202636288.0,1721916060,,,,,,,1.0,,,,-0.4717347883247313,14.98478291192464,1.2742142857142855,-20.60089219015059,-76.15960044281795,1,0,53446.44400000006,109.784:483.0;,109.784:483.0;,,0.0,109.784;
36,2024-07-25 22:07:00,108.51,107.64,108.51,107.49,4763792.0,514347008.0,1721916420,,,1.0,,,,,,,,-8.428671675390568,12.007859333651126,1.358857142857143,-20.60089219015059,-76.62088905324444,1,0,493.5640000000567,109.784:483.0;108.51:488.0;,108.51:488.0;,,0.0,109.784;108.51;
37,2024-07-25 22:08:00,107.43,107.19,107.49,107.07,3662152.0,391173120.0,1721916480,,,,,,,,,,,-9.313651572281046,12.007859333651126,1.358857142857143,-20.60089219015059,-77.04102335446332,0,0,52382.25400000006,108.51:488.0;,,107.43:483.0;,-1136.9819999999995,108.51;
61,2024-07-25 22:32:00,111.326,111.51,111.595,111.3,1761280.0,195129344.0,1721917920,,,,,,,,,,1.0,78.02752472954249,23.11248250219427,1.6606428571428578,-18.31238140193932,79.92302092630976,0,1,106709.34200000006,,,111.326:488.0;,1374.2079999999942,111.326;
6,2024-07-26 21:37:00,114.975,114.99,115.06,114.88,1303212.0,149681664.0,1722001020,1.0,,,,,,,,,,60.36925325842721,7.915624105357608,0.9510714285714283,54.98070669160404,80.86255590915549,1,0,53360.94200000007,114.975:464.0;,114.975:464.0;,,0.0,114.975;
18,2024-07-26 21:49:00,113.88,113.97,114.098,113.88,1143592.0,130155520.0,1722001740,,,,,,,,,,,83.26702697388153,25.14951520745504,1.0287857142857135,54.98070669160404,53.94947201424821,0,0,106201.26200000008,,,113.88:464.0;,-508.0799999999995,
14,2024-07-30 21:45:00,110.22,109.459,110.22,109.459,3377382.0,370475776.0,1722347100,1.0,,,,,,,,,,5.220862186797831,15.547829237451197,0.6905714285714291,49.38243407929048,-72.99197529805843,1,0,53185.442000000075,110.22:481.0;,110.22:481.0;,,0.0,110.22;
16,2024-07-30 21:47:00,109.09,109.59,109.59,109.09,1730270.0,188933120.0,1722347220,,,,,,,,,,,1.3774614878510647,15.547829237451197,0.6905714285714291,49.38243407929048,-76.93713167191784,0,0,105657.73200000008,,,109.09:481.0;,-543.5299999999978,
17,2024-07-30 21:48:00,109.532,109.07,109.532,109.07,1526092.0,166849280.0,1722347280,,,,,,,1.0,,1.0,,-1.1008201248078675,15.547829237451197,0.6905714285714291,49.38243407929048,-75.5449412351426,1,0,52644.24400000008,109.532:484.0;,109.532:484.0;,,0.0,109.532;
28,2024-07-30 21:59:00,108.26,108.27,108.442,108.177,1841684.0,199169024.0,1722347940,,,,,,,,,,,-10.228852232084591,11.522365424332108,0.7761428571428581,49.38243407929048,-77.27097405726768,0,0,105042.08400000009,,,108.26:484.0;,-615.6479999999958,
69,2024-07-30 22:40:00,106.8,107.02,107.1,106.8,1641432.0,174754816.0,1722350400,,,1.0,,,,,,,,3.905226388251883,4.916793738692689,0.9162857142857136,37.481947019865615,-77.85705372823325,1,0,51962.48400000009,106.8:497.0;,106.8:497.0;,,0.0,106.8;
91,2024-07-30 23:02:00,106.384,105.85,106.384,105.78,3887616.0,411060224.0,1722351720,,,,,,,,,,,11.74073198945105,1.0615452211001897,0.7277142857142859,30.61335013429435,-52.69577535393956,0,0,104835.33200000008,,,106.384:497.0;,-206.75199999999842,
98,2024-07-30 23:09:00,104.75,104.32,104.75,104.32,2449728.0,255194112.0,1722352140,,,,,1.0,,,,,,0.5305389069753055,-0.75597542208547,0.774714285714286,30.61335013429435,-70.89172709264408,1,0,51831.83200000008,104.75:506.0;,104.75:506.0;,,0.0,104.75;
126,2024-07-30 23:37:00,105.015,104.86,105.015,104.86,1868080.0,195497984.0,1722353820,,,,,,,,,,,49.93711286960084,4.896775287418954,0.7445000000000002,26.653733925627023,-3.021487422055712,0,0,104969.42200000008,,,105.015:506.0;,134.0900000000003,
80,2024-08-01 22:51:00,114.16,114.65,114.65,114.16,2112912.0,241154048.0,1722523860,,,1.0,,,,,,,,-9.32683280062274,13.224453878422878,1.1082857142857137,118.8967482464426,-77.86026532504539,1,0,52569.982000000084,114.16:459.0;,114.16:459.0;,,0.0,114.16;
92,2024-08-01 23:03:00,113.438,113.75,113.84,113.28,1792400.0,204097536.0,1722524580,,,,,,,,,,,5.11039943101494,3.4460982508529128,1.039357142857142,115.7191120892348,-72.74075802711155,0,0,104638.02400000009,,,113.438:459.0;,-331.39799999999735,
238,2024-08-02 01:29:00,109.005,109.09,109.09,108.805,1974656.0,215971840.0,1722533340,,,,,1.0,,,,,,0.8642454642696151,-18.015474291500528,0.6549285714285702,100.06976480443308,-72.93073316801036,1,0,52206.61900000009,109.005:481.0;,109.005:481.0;,,0.0,109.005;
249,2024-08-02 01:40:00,108.05,107.845,108.05,107.845,2196224.0,237899776.0,1722534000,,,,,,,,,,,12.137028700419446,-16.081970834239527,0.7237857142857129,93.81770026278063,-50.28464613578609,0,0,104178.66900000008,,,108.05:481.0;,-459.35499999999917,
8,2024-08-06 21:39:00,102.19,102.86,102.86,102.19,2145928.0,219775488.0,1722951540,1.0,,,,,,,,1.0,,67.31216970561682,12.444394675497293,1.3182857142857125,28.72102902344902,41.00784840489031,1,0,52163.95900000008,102.19:509.0;,102.19:509.0;,,0.0,102.19;
14,2024-08-06 21:45:00,101.148,101.235,101.565,101.148,1681116.0,170524160.0,1722951900,,,,,,,1.0,,,,44.44933265784354,19.16799573425719,1.4687857142857137,28.72102902344902,-45.5455589816532,1,0,173.88700000008248,102.19:509.0;101.148:514.0;,101.148:514.0;,,0.0,102.8;101.148;
15,2024-08-06 21:46:00,100.731,101.23,101.23,100.731,1814068.0,183266304.0,1722951960,,,,,,,,,,,41.62300889114388,19.16799573425719,1.4687857142857137,28.72102902344902,-47.36105661619941,0,0,51445.96600000008,101.148:514.0;,,100.731:509.0;,-742.6310000000017,101.148;
40,2024-08-06 22:11:00,104.519,104.69,104.73,104.301,1542312.0,160843776.0,1722953460,,,,,,,,,,1.0,78.23879515189103,49.36309783204361,1.6877857142857156,30.680257210034974,59.85134887338663,0,1,105168.73200000008,,,104.519:514.0;,1732.6940000000047,104.519;
71,2024-08-20 22:42:00,126.63,126.47,126.63,126.46,1012344.0,127417344.0,1724164920,,,,,,,1.0,,,,-6.338998964398932,12.371022779207465,0.8768571428571386,96.04615164562584,-72.45221685748992,1,0,52617.28200000008,126.63:415.0;,126.63:415.0;,,0.0,126.63;
97,2024-08-20 23:08:00,126.57,126.74,126.81,126.57,827840.0,104488960.0,1724166480,,,,,,,,,,,56.56354936222529,1.1348015030797285,0.8068571428571403,92.50039905216236,-8.1338599505537,0,0,105143.83200000008,,,126.57:415.0;,-24.900000000000944,
131,2024-08-22 23:42:00,126.235,126.395,126.405,126.235,866016.0,108951552.0,1724341320,,,,,1.0,,,,,,-8.37587868000626,2.7613408395740606,0.5458571428571405,74.16851170917434,-76.66793380890321,1,0,52630.07200000008,126.235:416.0;,126.235:416.0;,,0.0,126.235;
133,2024-08-22 23:44:00,125.57,125.035,125.57,125.035,2679936.0,335253504.0,1724341440,,,,,,,,,,,-11.02976893751427,2.7613408395740606,0.5458571428571405,74.16851170917434,-76.56909796555789,0,0,104867.19200000007,,,125.57:416.0;,-276.6400000000026,
261,2024-08-23 01:52:00,124.799,124.745,124.799,124.66,617248.0,76795904.0,1724349120,,,1.0,,,,,,,,-2.118693524993425,5.533687400759256,0.4620000000000023,46.8481708206003,-75.51864515587786,1,0,52326.81300000007,124.799:421.0;,124.799:421.0;,,0.0,124.799;
265,2024-08-23 01:56:00,124.13,124.295,124.295,124.12,1246624.0,154499072.0,1724349360,,,,,,,,,,,-2.7061992916029425,2.587431996335468,0.5001428571428599,46.8481708206003,-74.69805795918975,0,0,104585.54300000006,,,124.13:421.0;,-281.64900000000466,
21,2024-08-28 21:52:00,126.58,126.675,126.675,126.288,1352180.0,170800128.0,1724853120,1.0,,,,,,,,,,-7.6456955057959135,12.001707850506762,0.455999999999999,68.92497992791075,-76.05425384000215,1,0,52308.00300000006,126.58:413.0;,126.58:413.0;,,0.0,126.58;
25,2024-08-28 21:56:00,126.499,126.53,126.53,126.405,867724.0,109585408.0,1724853360,,,,,,,,,1.0,,-6.181712015046365,7.911727334703954,0.5008571428571439,68.92497992791075,-70.82387680687899,1,0,63.91600000006292,126.58:413.0;126.499:413.0;,126.499:413.0;,,0.0,126.854;126.499;
72,2024-08-28 22:43:00,126.285,126.39,126.39,126.27,1040680.0,130792448.0,1724856180,,,,,,,,,,,56.16307362583677,8.913885188843949,0.674357142857143,64.37868412091915,-61.310135382632325,0,0,104375.32600000006,,,126.285:413.0;126.285:413.0;,-210.21700000000016,
92,2024-08-28 23:03:00,125.08,124.77,125.08,124.73,1553768.0,193386496.0,1724857380,,,,,,,1.0,,,,-6.541412714357108,-5.393367424635585,0.6187142857142872,57.83374308368761,-74.69741295177724,1,0,52091.88600000006,125.08:418.0;,125.08:418.0;,,0.0,125.08;
101,2024-08-28 23:12:00,124.26,123.955,124.26,123.955,3025832.0,374415360.0,1724857920,,,,,,,,,,,-8.93631519195118,-10.079823965286195,0.5963571428571431,57.83374308368761,-66.02082490952084,0,0,104032.56600000005,,,124.26:418.0;,-342.75999999999715,
4,2024-08-30 21:35:00,118.78,118.94,118.94,118.63,1287924.0,152853888.0,1725024900,1.0,,,,,,,,,,42.48778115006533,16.776815964400683,0.8062142857142872,31.47322620289073,62.30407356482248,1,0,52125.70600000005,118.78:437.0;,118.78:437.0;,,0.0,118.78;
10,2024-08-30 21:41:00,119.515,119.558,119.61,119.28,1500284.0,179179008.0,1725025260,,1.0,,,,,,,,,70.78384705548089,22.43070151069812,0.8462857142857162,31.47322620289073,71.15737955215182,0,1,78299.49100000005,118.78:218.0;,,119.515:219;,160.96499999999986,119.92;
23,2024-08-30 21:54:00,120.85,121.123,121.123,120.85,1696184.0,205232640.0,1725026040,,,,,,,,,,1.0,109.73783004973193,41.70938690594386,0.8713571428571447,31.47322620289073,57.49171067967322,0,1,104644.79100000006,,,120.85:218.0;,451.2599999999985,120.925;
81,2024-09-03 22:52:00,110.15,110.0,110.15,110.0,1443456.0,158003200.0,1725375120,,,1.0,,1.0,,,,,,0.1574236212709898,-7.368336822105974,0.800857142857143,12.788842140920451,-55.60280314666057,1,0,52323.541000000056,110.15:475.0;,110.15:475.0;,,0.0,110.15;
141,2024-09-03 23:52:00,110.59,110.65,110.68,110.58,543568.0,59635712.0,1725378720,,,,,,,,,,,35.78272247744248,-3.633240909693463,0.6321428571428568,6.478395397298897,7.885627464748745,0,0,104853.79100000006,,,110.59:475.0;,208.99999999999892,
276,2024-09-04 02:07:00,109.081,108.91,109.081,108.91,992736.0,107982848.0,1725386820,,,,,1.0,,,,,,-10.502855796464694,4.439097421269871,0.3390714285714265,-4.074060840855125,-73.79332353916823,1,0,52603.99200000006,109.081:479.0;,109.081:479.0;,,0.0,109.081;
292,2024-09-04 02:23:00,108.595,108.465,108.6,108.465,1036352.0,112807936.0,1725387780,,,,,,,,,,,-2.8148060610833667,0.4887078285811057,0.3413571428571406,-4.074060840855125,-73.62955721314093,0,0,104620.99700000006,,,108.595:479.0;,-232.79400000000203,
9,2024-09-04 21:40:00,104.9,104.565,104.99,104.5,2150560.0,224855552.0,1725457200,1.0,,,,,,,,1.0,,17.31930882089398,19.44860839505675,0.8942142857142831,-1.219222794235094,-70.71316471795278,1,0,52380.79700000006,104.9:498.0;,104.9:498.0;,,0.0,104.9;
15,2024-09-04 21:46:00,106.52,107.045,107.045,106.52,2563668.0,273489920.0,1725457560,,1.0,,,,,,,,,41.439371591268895,22.96163151309432,1.047785714285711,-1.219222794235094,67.64382806382658,0,1,78904.27700000006,104.9:249.0;,,106.52:249;,403.3799999999976,106.54;
20,2024-09-04 21:51:00,107.535,107.28,107.535,107.045,2248952.0,241134592.0,1725457860,,,,,,,,,,1.0,74.16633501445516,29.515864159340573,1.1181428571428538,-1.219222794235094,78.98659458900582,0,1,105680.49200000006,,,107.535:249.0;,656.1149999999977,107.59;
67,2024-09-06 22:38:00,103.07,103.14,103.17,103.032,1409096.0,144974848.0,1725633480,,,1.0,,,,,,,,-0.3158042899785513,8.839348251682651,1.2399999999999989,10.235450697427972,-77.5158789210824,1,0,52908.65200000006,103.07:512.0;,103.07:512.0;,,0.0,103.07;
86,2024-09-06 22:57:00,102.215,102.255,102.266,102.12,1745488.0,177900544.0,1725634620,,,,,,,,,,,1.2007627497965672,-3.809555227522779,0.7937857142857102,10.235450697427972,-74.54056504779159,0,0,105242.73200000006,,,102.215:512.0;,-437.75999999999476,
