,dt,open,close,high,low,vol,turnover,ts,icon_1,icon_2,icon_11,icon_12,icon_13,icon_41,icon_34,icon_35,icon_38,icon_39,jw1,jw5,atr5,jw30,baijiao,buy_signal,sell_signal,cash,chicang,buy_detail,sell_detail,profit,max_zhiying_prices
282,2024-01-05 03:13:00,148.385,148.48,148.49,148.385,2295.0,340640.0,1704395580,1.0,,,,,,,,,,-17.258720823783605,12.84342174662926,0.1557857142857171,,-77.81672444190623,1,0,50142.64,148.385:336.0;,148.385:336.0;,,0.0,148.385;
303,2024-01-05 03:34:00,148.47,148.51,148.51,148.46,3353.0,497824.0,1704396840,,,,,,,,,,,30.571226272002008,4.597958986165068,0.1635000000000031,,-56.67866384627379,0,0,100028.56,,,148.47:336.0;,28.560000000002674,
107,2024-01-11 00:18:00,148.925,148.91,148.95,148.842,21082.0,3138208.0,1704903480,,,,,,,,,1.0,,8.015141593426165,3.183036656473277,0.4829285714285731,89.23144519543251,-68.78074771090344,1,0,50138.68499999999,148.925:335.0;,148.925:335.0;,,0.0,148.925;
146,2024-01-11 00:57:00,149.3,149.26,149.3,149.26,4453.0,664864.0,1704905820,,,,,,,,,,,88.92175054004842,8.115985522118393,0.3345714285714304,87.86168884070099,65.4425253511239,0,0,100154.185,,,149.3:335.0;,125.625,
200,2024-01-13 01:51:00,149.23,149.17,149.23,149.17,7964.0,1188192.0,1705081860,,,,,,,,,1.0,,2.257209614543399,-15.046116922025462,0.2012142857142882,77.10907761306862,-74.79147143669428,1,0,50162.135,149.23:335.0;,149.23:335.0;,,0.0,149.23;
218,2024-01-13 02:09:00,149.1,149.06,149.11,149.06,6590.0,982528.0,1705082940,,,,,,,,,,,10.697651305309506,-17.06929306763511,0.1949285714285724,70.84482222320776,-40.94194212811927,0,0,100110.63500000001,,,149.1:335.0;,-43.54999999999848,
249,2024-01-13 02:40:00,148.68,148.7,148.71,148.665,4562.0,678400.0,1705084800,,,,,,,1.0,,,,10.57824095956736,-17.913549117132355,0.2417142857142827,61.56833168129393,-72.97402450892112,1,0,50154.155000000006,148.68:336.0;,148.68:336.0;,,0.0,148.68;
272,2024-01-13 03:03:00,148.84,148.94,148.94,148.84,5092.0,758528.0,1705086180,,,,,,,,,,,59.77793907520807,-13.075802517894203,0.2665714285714265,51.51087276657,82.12736161560814,0,0,100164.395,,,148.84:336.0;,53.759999999998854,
103,2024-01-24 00:14:00,140.54,140.51,140.54,140.45,9652.0,1356224.0,1706026440,,,,,,,1.0,,,,-7.707283416025071,2.236540605355969,0.7480714285714336,40.842636853706296,-77.76904752047632,1,0,50132.155000000006,140.54:356.0;,140.54:356.0;,,0.0,140.54;
124,2024-01-24 00:35:00,139.66,139.59,139.745,139.59,49631.0,6929088.0,1706027700,,,,,,,,,,,5.464817286014508,-13.57726250228717,0.5709285714285751,35.82418260929698,-75.6763469426543,0,0,99851.115,,,139.66:356.0;,-313.2799999999984,
384,2024-01-27 04:55:00,141.86,141.915,141.915,141.855,19073.0,2705408.0,1706302500,1.0,,,,,,,,,,-6.841524523465694,-5.248420602293891,0.1577142857142917,31.70150530819427,-75.9775328976765,1,0,99851.115,,,,0.0,
7,2024-01-29 22:38:00,132.88,133.875,133.995,132.88,179293.0,23936480.0,1706539080,1.0,,,,,,,,1.0,,-3.3277063291644744,-7.563515662330317,0.8582142857142908,21.55331910274396,-74.90310888751911,1,0,50021.115000000005,132.88:375.0;,132.88:375.0;,,0.0,132.88;
16,2024-01-29 22:47:00,132.35,133.329,133.329,132.35,110201.0,14620736.0,1706539620,,,,,,,,,,,10.501990584433898,-6.729542570798159,1.1110000000000022,21.55331910274396,33.163710006213286,0,0,99652.365,,,132.35:375.0;,-198.75000000000043,
58,2024-01-29 23:29:00,129.54,129.455,129.54,129.16,216526.0,27993600.0,1706542140,,,,,,,1.0,,,,0.2296330385717482,-11.707102855901574,1.550785714285717,14.176622111353026,-76.06865242246583,1,0,49779.46500000001,129.54:385.0;,129.54:385.0;,,0.0,129.54;
74,2024-01-29 23:45:00,129.21,129.32,129.33,129.21,83311.0,10767616.0,1706543100,,,,,,,,,,,22.920863287900865,-10.019379536677503,1.2315000000000051,7.140904224653752,-46.70792828339316,0,0,99525.31500000002,,,129.21:385.0;,-127.04999999999387,
101,2024-01-30 00:12:00,128.5,128.975,129.01,128.5,104710.0,13491584.0,1706544720,,,1.0,,,,,,,,8.981577415258663,-9.972735642060506,1.0002142857142908,1.284458283801797,-74.95933474788063,1,0,49667.31500000002,128.5:388.0;,128.5:388.0;,,0.0,128.5;
130,2024-01-30 00:41:00,129.13,129.11,129.275,129.11,41238.0,5325568.0,1706546460,,,,,,,,,,,57.290049273576585,-3.766990198208301,1.0282857142857134,-2.516745221427513,7.621382610524352,0,0,99769.755,,,129.13:388.0;,244.43999999999824,
338,2024-02-01 04:09:00,126.89,126.972,126.972,126.76,15289.0,1940224.0,1706731740,1.0,,,,,,,,,,19.64818601839021,-0.0638043743423963,0.3899999999999965,26.868281176556675,-75.37491032010067,1,0,49901.98500000001,126.89:393.0;,126.89:393.0;,,0.0,126.89;
386,2024-02-01 04:57:00,126.98,126.97,126.99,126.925,53961.0,6850112.0,1706734620,,,,,,,,,,,61.71514442685585,-6.622462543515198,0.3252857142857124,26.635634464579503,-11.95905607929123,0,0,99805.125,,,126.98:393.0;,35.37000000000134,126.98;
85,2024-02-05 23:56:00,120.655,120.625,120.688,120.59,21524.0,2596928.0,1707148560,1.0,,,,,,,,,,3.220053579317778,-4.721714769500053,0.4424285714285716,26.787368225901027,-60.45322897596648,1,0,49974.61,120.655:413.0;,120.655:413.0;,,0.0,120.655;
176,2024-02-06 01:27:00,121.11,121.175,121.175,121.11,16396.0,1986304.0,1707154020,,,,,,,,,,,72.14445892333885,1.411130903843194,0.2720000000000015,15.850064398821914,11.493610132944465,0,0,99993.04000000001,,,121.11:413.0;,187.91499999999928,
36,2024-02-09 23:07:00,125.68,125.59,125.735,125.59,9662.0,1213800.0,1707491220,1.0,,,,,,,,,,1.9433194186707323,10.15670828240014,0.4647142857142857,65.61767958364209,-73.04241021200853,1,0,50098.08000000001,125.68:397.0;,125.68:397.0;,,0.0,125.68;
97,2024-02-10 00:08:00,127.1,127.2,127.23,127.1,4711.0,599232.0,1707494880,,1.0,,,,,,,,,114.06280278488464,37.84057359151101,0.3359999999999995,62.47625047434724,74.95725417883577,0,1,75390.98000000001,125.68:198.0;,,127.1:199;,282.57999999999754,127.13;
108,2024-02-10 00:19:00,126.66,126.77,126.77,126.66,3374.0,427552.0,1707495540,,,,,,,,,,,75.29795886720089,48.21142804819783,0.2928571428571424,62.47625047434724,22.05775665644047,0,0,100469.66,,,126.66:198.0;,194.03999999999797,
290,2024-02-13 03:21:00,131.57,131.552,131.595,131.552,10460.0,1376256.0,1707765660,1.0,,,,,,,,,,-0.4107621553833454,-9.398438988395952,0.1853571428571468,84.84811306038844,-77.9050840893082,1,0,50341.490000000005,131.57:381.0;,131.57:381.0;,,0.0,131.57;
309,2024-02-13 03:40:00,131.33,131.46,131.46,131.325,36619.0,4811264.0,1707766800,,,,,,,,,,,0.3357521288397826,-22.61393346302052,0.1721428571428548,83.23033143867397,-72.62749680288836,0,0,100378.22,,,131.33:381.0;,-91.43999999999264,
277,2024-02-14 03:08:00,128.35,128.27,128.35,128.27,8458.0,1085216.0,1707851280,,,,,,,,,1.0,,-0.8532338734038021,-5.533826630985757,0.1747857142857145,48.835692823486,-72.41204596654629,1,0,50193.37,128.35:391.0;,128.35:391.0;,,0.0,128.35;
317,2024-02-14 03:48:00,128.59,128.53,128.59,128.53,4731.0,608288.0,1707853680,,,,,,,,,,,104.25032011361024,10.53405447812142,0.1617142857142844,45.37851124742724,67.5412679240551,0,0,100472.06,,,128.59:391.0;,93.84000000000356,
346,2024-02-14 04:17:00,128.445,128.375,128.45,128.375,7515.0,964800.0,1707855420,,,,,,,1.0,,,,3.354684014404853,5.314798463322841,0.1799285714285677,41.60439313033652,-66.04955194322811,1,0,50378.51,128.445:390.0;,128.445:390.0;,,0.0,128.445;
355,2024-02-14 04:26:00,128.18,128.16,128.185,128.16,4891.0,626944.0,1707855960,,,,,,,,,,,-6.919414406455594,4.463222877390471,0.1881428571428541,41.60439313033652,-74.8819735811004,0,0,100368.71,,,128.18:390.0;,-103.34999999999468,
373,2024-02-17 04:44:00,135.44,135.385,135.44,135.37,12974.0,1756928.0,1708116240,,,,,1.0,,,,,,-7.937322493176801,5.271571352387511,0.2075714285714249,82.63636640064726,-76.43057285974182,1,0,100368.71,,,,0.0,
8,2024-02-20 22:39:00,133.08,133.1,133.17,133.029,33038.0,4398192.0,1708439940,1.0,,,,,,,,1.0,,39.05559372930074,1.9448451487680245,0.4185714285714275,70.46202114697925,71.19016665794226,1,0,50197.55,133.08:377.0;,133.08:377.0;,,0.0,133.08;
23,2024-02-20 22:54:00,133.07,132.7,133.12,132.7,21779.0,2895888.0,1708440840,,,,,,,,,,,44.10786851252372,8.544176623991177,0.561642857142853,70.46202114697925,56.87541677716159,0,0,100364.94,,,133.07:377.0;,-3.770000000007286,
33,2024-02-20 23:04:00,131.39,131.528,131.58,131.38,59408.0,7808048.0,1708441440,,,,,,,1.0,,,,8.083606764018818,4.773564198503301,0.7234285714285684,61.78679006838576,-76.68613372647305,1,0,50305.350000000006,131.39:381.0;,131.39:381.0;,,0.0,131.39;
45,2024-02-20 23:16:00,130.59,130.863,130.863,130.54,63194.0,8248736.0,1708442160,,,,,,,,,,,-2.5947233618192485,-2.6036687918815744,0.8566428571428547,61.78679006838576,-76.0309949338858,0,0,100060.14000000001,,,130.59:381.0;,-304.7999999999935,
316,2024-02-28 03:47:00,128.91,128.89,128.94,128.89,3913.0,504448.0,1709063220,1.0,,,,,,,,,,2.4956299003952083,-22.957629703907077,0.135000000000001,65.45230133978866,-70.6255185007935,1,0,50043.06000000001,128.91:388.0;,128.91:388.0;,,0.0,128.91;
331,2024-02-28 04:02:00,128.96,128.93,128.96,128.92,6071.0,782688.0,1709064120,,,,,,,,,,,33.37134830209405,-24.41120822345509,0.1332142857142863,66.47602040225632,75.25855042516065,0,0,100079.54000000001,,,128.96:388.0;,19.40000000000441,
19,2024-02-28 22:50:00,125.795,125.47,125.795,125.47,22732.0,2857792.0,1709131800,1.0,,,,,,,,,,8.292969604050171,-15.884544557611804,0.4893571428571458,72.09138739111765,-73.77417285905575,1,0,50138.92500000001,125.795:397.0;,125.795:397.0;,,0.0,125.795;
51,2024-02-28 23:22:00,125.22,125.2,125.22,125.15,23630.0,2957824.0,1709133720,,,,,,,,,,,6.302859467653796,-10.2579455563045,0.5882142857142867,67.62697311980904,-71.93730411851021,0,0,99851.26500000001,,,125.22:397.0;,-228.2750000000011,
6,2024-02-29 22:37:00,126.71,126.58,126.71,126.58,31143.0,3944332.0,1709217420,1.0,,,,,,,,,,51.49247293189653,10.452738421243446,0.4442857142857101,26.839910658917404,77.34089841403679,1,0,49927.525000000016,126.71:394.0;,126.71:394.0;,,0.0,126.71;
10,2024-02-29 22:41:00,126.205,126.08,126.25,126.05,30566.0,3856808.0,1709217660,,,,,,,,,,,53.76770651022476,15.96878539896359,0.4889285714285672,26.839910658917404,69.35291082215203,0,0,99652.29500000001,,,126.205:394.0;,-198.9699999999982,
13,2024-02-29 22:44:00,126.34,126.44,126.59,126.26,33734.0,4263144.0,1709217840,,,,,,,,,1.0,,51.34841558266697,15.96878539896359,0.4889285714285672,26.839910658917404,45.0797970680204,1,0,49747.99500000001,126.34:395.0;,126.34:395.0;,,0.0,126.34;
32,2024-02-29 23:03:00,125.73,125.88,125.88,125.65,15863.0,1995280.0,1709218980,,,,,,,,,,,37.22759092345291,30.03990807768554,0.6502857142857111,27.137638800715266,-37.18413230106319,0,0,99411.345,,,125.73:395.0;,-240.94999999999976,
3,2024-03-04 22:34:00,125.78,125.11,125.78,125.11,21835.0,2741404.0,1709562840,1.0,,,,,,,,,,18.522700816843987,4.887852509382057,0.1949285714285724,54.5712461989672,54.5150057640852,1,0,49728.245,125.78:395.0;,125.78:395.0;,,0.0,125.78;
4,2024-03-04 22:35:00,124.685,125.045,125.155,124.685,153737.0,19206960.0,1709562900,,,,,,,,,,,17.009640903178145,3.301201773667003,0.3970714285714294,54.5712461989672,-41.370452065326056,0,0,98978.82,,,124.685:395.0;,-432.5249999999995,
12,2024-03-04 22:43:00,124.49,124.46,124.56,124.37,17702.0,2202632.0,1709563380,,,,,,,1.0,,1.0,,2.62915551738557,-0.0175839608803869,0.4302142857142854,54.5712461989672,-74.2098928624579,1,0,49307.31000000001,124.49:399.0;,124.49:399.0;,,0.0,124.49;
18,2024-03-04 22:49:00,123.56,123.1,123.56,123.1,30517.0,3765224.0,1709563740,,,,,,,,,,,-1.321250275460315,-0.8154485695385603,0.4383571428571419,54.5712461989672,-70.78306254681206,0,0,98607.75000000001,,,123.56:399.0;,-371.06999999999704,
25,2024-03-04 22:56:00,123.725,123.355,123.725,123.355,23689.0,2925200.0,1709564160,,,,,1.0,,,,,,0.4704491960931207,-3.287117350959477,0.5649999999999997,54.5712461989672,4.454161872204852,1,0,48994.025000000016,123.725:401.0;,123.725:401.0;,,0.0,123.725;
40,2024-03-04 23:11:00,122.83,122.5,122.83,122.43,51960.0,6369200.0,1709565060,,,,,,,,,,,-2.45972000631318,-7.867557633272291,0.6271428571428562,47.02802883181195,-76.22999546467553,0,0,98248.85500000001,,,122.83:401.0;,-358.8949999999984,
114,2024-03-05 00:25:00,122.37,122.21,122.38,122.21,21970.0,2687072.0,1709569500,,,,,1.0,,,,,,-17.566567871493817,-0.5392183310405869,0.3671428571428561,36.22096740856267,-76.8746632454443,1,0,48566.63500000001,122.37:406.0;,122.37:406.0;,,0.0,122.37;
128,2024-03-05 00:39:00,121.89,121.985,121.985,121.885,19487.0,2375776.0,1709570340,,,,,,,,,,,-17.060447667725114,-4.000825841464994,0.3558571428571428,29.396666776020595,-78.22838378514594,0,0,98053.975,,,121.89:406.0;,-194.88000000000162,
10,2024-03-06 22:41:00,121.46,121.725,121.827,121.46,88424.0,10749104.0,1709736060,1.0,,,,,,,,,,96.34307094515444,13.97803168184629,0.9510000000000016,33.23254123284385,75.75003892089282,1,0,49105.59500000001,121.46:403.0;,121.46:403.0;,,0.0,121.46;
16,2024-03-06 22:47:00,120.1,120.0,120.31,120.0,79134.0,9503664.0,1709736420,,,,,,,,,,,96.4481291637768,23.778401980190225,1.0295714285714308,33.23254123284385,62.28520912790128,0,0,97505.895,,,120.1:403.0;,-548.0799999999998,
319,2024-03-07 03:50:00,116.89,116.873,116.89,116.86,20509.0,2398592.0,1709754600,,,1.0,,,,,,,,3.0124319994780717,-9.188214635322836,0.2292142857142869,41.667792131047065,-49.80189916364544,1,0,48528.985,116.89:419.0;,116.89:419.0;,,0.0,116.89;
342,2024-03-07 04:13:00,116.625,116.66,116.66,116.625,30522.0,3559552.0,1709755980,,,,,,,,,,,31.78727596103945,-10.876155890126604,0.2232142857142847,40.24041623644829,-55.61693992575445,0,0,97394.86,,,116.625:419.0;,-111.03500000000024,
18,2024-03-07 22:49:00,115.775,116.15,116.15,115.74,54812.0,6354240.0,1709822940,1.0,,,,,,,,,,29.09808904349097,-0.7291805093695984,0.5463571428571419,24.713523059908624,-54.56341236745177,1,0,48769.36,115.775:420.0;,115.775:420.0;,,0.0,115.775;
27,2024-03-07 22:58:00,115.98,116.09,116.137,115.95,49738.0,5772928.0,1709823480,,,,,,,,,,,53.60608764756937,7.471103323934471,0.6469285714285726,24.713523059908624,62.2143011695898,0,0,97480.95999999999,,,115.98:420.0;,86.09999999999928,
16,2024-03-08 22:47:00,114.0,114.3,114.3,114.0,58226.0,6642416.0,1709909220,1.0,,,,,,,,1.0,,-19.695319964741245,-2.84805851223868,0.5527142857142857,32.593081778687136,-76.64668343213854,1,0,48802.95999999999,114.0:427.0;,114.0:427.0;,,0.0,114.0;
47,2024-03-08 23:18:00,113.57,113.525,113.6,113.525,25612.0,2909120.0,1709911080,,,,,,,,,,,-0.3063816641313153,-5.910691818819089,0.7242142857142854,28.064711122376018,-76.13475429957565,0,0,97297.34999999999,,,113.57:427.0;,-183.6100000000029,
89,2024-03-09 00:00:00,112.602,112.54,112.602,112.49,50709.0,5708480.0,1709913600,,,,,,,1.0,,,,6.139592222644904,-16.255215747412095,0.4089999999999989,18.218470853736875,-45.24084396849253,1,0,48653.28599999999,112.602:432.0;,112.602:432.0;,,0.0,112.602;
94,2024-03-09 00:05:00,111.868,111.84,111.868,111.765,73309.0,8199296.0,1709913900,,,,,,,,,,,1.515178141199776,-16.85447425520025,0.4311428571428562,18.218470853736875,-73.70422015113134,0,0,96980.26199999999,,,111.868:432.0;,-317.08800000000383,
109,2024-03-09 00:20:00,111.05,110.99,111.135,110.99,76996.0,8557056.0,1709914800,,,,,1.0,,,,,,1.090608170587938,-17.630241575449702,0.4701428571428557,18.218470853736875,-51.06762338282434,1,0,48340.36199999999,111.05:438.0;,111.05:438.0;,,0.0,111.05;
124,2024-03-09 00:35:00,110.485,110.47,110.485,110.4,50074.0,5533632.0,1709915700,,,,,,,,,,,1.8852809190572424,-17.401437155945164,0.431285714285713,13.953120087124326,-73.32696266984874,0,0,96732.79199999999,,,110.485:438.0;,-247.469999999999,
176,2024-03-09 01:27:00,108.96,108.96,109.01,108.95,76446.0,8329088.0,1709918820,,,1.0,,,,,,,,-1.4619761099032438,-12.67837308349107,0.445214285714285,9.963905836566228,-75.89454543788678,1,0,48027.67199999999,108.96:447.0;,108.96:447.0;,,0.0,108.96;
178,2024-03-09 01:29:00,109.4,109.97,109.97,109.4,28502.0,3122624.0,1709918940,,,,,1.0,,,,,,8.655216413731598,-12.67837308349107,0.445214285714285,9.963905836566228,-1.20207789041769,1,0,1.0719999999855645,108.96:447.0;109.4:439.0;,109.4:439.0;,,0.0,109.4;109.4;
193,2024-03-09 01:44:00,109.795,109.66,109.84,109.66,45211.0,4964992.0,1709919840,,,,,,,,,,,65.86505931140657,-6.3251522909051765,0.48992857142857,8.105821480041584,77.95757721792481,0,0,97279.44199999998,,,109.795:447.0;109.795:439.0;,546.6500000000018,
338,2024-03-12 03:09:00,112.61,112.635,112.64,112.61,11856.0,1335808.0,1710184140,,,,,,,1.0,,,,5.863825922983693,-7.145784708671656,0.178214285714286,36.48119263461593,-75.17761728621522,1,0,48744.531999999985,112.61:431.0;,112.61:431.0;,,0.0,112.61;
349,2024-03-12 03:20:00,112.34,112.39,112.39,112.34,23658.0,2660032.0,1710184800,,,,,,,,,,,-5.012546933509597,-11.18911493359537,0.173571428571428,36.48119263461593,-74.48706744041827,0,0,97163.07199999999,,,112.34:431.0;,-116.36999999999829,
27,2024-03-14 21:58:00,120.5,120.451,120.59,120.45,16165.0,1947632.0,1710424680,,,,,1.0,,,,,,-7.476075999768412,13.958488726238896,0.8242857142857117,68.891229502474,-67.77120208177259,1,0,48601.571999999986,120.5:403.0;,120.5:403.0;,,0.0,120.5;
63,2024-03-14 22:34:00,121.89,122.02,122.03,121.86,12796.0,1560384.0,1710426840,,1.0,,,,,,,,,121.46257747282397,14.039135445899625,1.0542857142857127,63.9874033464437,79.10298729252531,0,1,73223.35199999998,120.5:201.0;,,121.89:202;,280.7800000000001,122.03;
106,2024-03-14 23:17:00,121.4,121.24,121.4,121.24,27363.0,3320800.0,1710429420,,,,,,,,,,,40.76308144823852,38.096583916028,0.4522857142857169,62.80454498739002,21.101657931770568,0,0,97624.75199999998,,,121.4:201.0;,180.90000000000114,
353,2024-03-19 03:24:00,128.69,128.64,128.69,128.64,14468.0,1861376.0,1710789840,1.0,,,,,,,,,,5.98278707807836,-2.727418531983659,0.155785714285713,81.00439297985244,-68.58252364245861,1,0,48851.24199999998,128.69:379.0;,128.69:379.0;,,0.0,128.69;
381,2024-03-19 03:52:00,128.8,128.785,128.815,128.78,41007.0,5280896.0,1710791520,,,,,,,,,,,83.91838831614227,-1.5820135987657693,0.16357142857143,80.14644528794679,66.45363772148336,0,0,97666.44199999998,,,128.8:379.0;,41.69000000000517,
16,2024-03-19 21:47:00,124.9,124.37,125.02,124.37,84716.0,10582784.0,1710856020,1.0,,,,,,,,1.0,,-4.500264136402663,-1.123806226277111,0.6152857142857157,74.51699495930748,-77.22024921994888,1,0,48955.44199999998,124.9:390.0;,124.9:390.0;,,0.0,124.9;
19,2024-03-19 21:50:00,125.31,125.38,125.59,125.31,79795.0,10007904.0,1710856200,,,,,1.0,,,,,,-1.9788565801157745,-0.6969551172702921,0.695285714285716,74.51699495930748,-69.74380590657753,1,0,209.85199999997712,124.9:390.0;125.31:389.0;,125.31:389.0;,,0.0,125.31;125.31;
51,2024-03-19 22:22:00,125.31,125.42,125.42,125.31,11323.0,1419712.0,1710858120,,,,,,,,,,,34.65155050561669,7.007452895436643,0.8565714285714279,68.68687753156294,-33.02914795975668,0,0,97826.34199999998,,,125.31:390.0;125.31:389.0;,159.89999999999867,
245,2024-03-22 01:36:00,123.68,123.69,123.72,123.68,33090.0,4095232.0,1711042560,,,,,,,1.0,,,,-19.79777068027726,-1.971435652181043,0.3204999999999996,-7.048495879329067,-77.60204508416766,1,0,48972.74199999997,123.68:395.0;,123.68:395.0;,,0.0,123.68;
251,2024-03-22 01:42:00,123.352,123.33,123.352,123.29,35579.0,4386432.0,1711042920,,,,,,,,,,,-20.83444003805941,-3.318105826235545,0.3097857142857145,-7.048495879329067,-78.32393423696513,0,0,97696.78199999998,,,123.352:395.0;,-129.56000000000117,
255,2024-03-22 01:46:00,123.3,123.08,123.32,123.08,38305.0,4719232.0,1711043160,,,,,1.0,,,,,,-18.999341445030048,-3.898819991742848,0.328714285714286,-7.048495879329067,-77.4890273046395,1,0,48869.98199999998,123.3:396.0;,123.3:396.0;,,0.0,123.3;
259,2024-03-22 01:50:00,122.78,122.86,122.86,122.78,37065.0,4553600.0,1711043400,,,,,,,,,,,-18.129169845120497,-4.651959416674735,0.3394285714285711,-7.048495879329067,-78.78745106118025,0,0,97490.86199999998,,,122.78:396.0;,-205.91999999999842,
269,2024-03-22 02:00:00,122.565,122.61,122.67,122.565,25055.0,3074304.0,1711044000,,,1.0,,,,,,,,-10.446326489191756,-5.585406619872245,0.3633571428571441,-9.672875378827245,-75.01861670996578,1,0,48587.42699999998,122.565:399.0;,122.565:399.0;,,0.0,122.565;
273,2024-03-22 02:04:00,121.97,122.18,122.18,121.97,91638.0,11183872.0,1711044240,,,,,,,,,,,-8.837280562873202,-5.585406619872245,0.3633571428571441,-9.672875378827245,-77.07625851867395,0,0,97253.45699999998,,,121.97:399.0;,-237.40499999999955,
13,2024-03-25 21:44:00,120.47,121.155,121.155,120.47,68918.0,8323008.0,1711374240,1.0,,,,,,,,1.0,,78.64468047135261,7.332224626122624,1.153499999999999,19.86932838012938,66.83040794909033,1,0,48704.046999999984,120.47:403.0;,120.47:403.0;,,0.0,120.47;
77,2024-03-25 22:48:00,120.03,120.355,120.41,120.02,15357.0,1846592.0,1711378080,,,,,,,,,,,41.54928715350499,51.774152686502376,0.7752857142857132,19.654797811257488,-2.328466054942926,0,0,97076.13699999999,,,120.03:403.0;,-177.31999999999908,
369,2024-04-02 03:40:00,118.82,118.74,118.83,118.74,7673.0,911936.0,1712000400,,,,,1.0,,,,,,-12.070777180429673,8.98783057865937,0.1513571428571408,88.19190820989675,-76.67378146586618,1,0,97076.13699999999,,,,0.0,
14,2024-04-02 21:45:00,117.206,117.47,117.5,117.206,17901.0,2099752.0,1712065500,1.0,,,,,,,,,,21.729756906590417,6.474858977268653,0.5001428571428568,87.0548094304881,-71.66386230643006,1,0,48552.85299999999,117.206:414.0;,117.206:414.0;,,0.0,117.206;
70,2024-04-02 22:41:00,117.93,117.87,118.0,117.87,7966.0,939440.0,1712068860,,,,,,,,,,,14.703712025862956,33.03873818996935,0.7240714285714286,82.24102612381458,-42.56484149948727,0,0,97375.87299999999,,,117.93:414.0;,299.7360000000016,
336,2024-04-05 03:07:00,118.125,118.15,118.16,118.125,4287.0,506528.0,1712257620,,,,,,,,,1.0,,2.3757228455867434,13.735026322894171,0.2061428571428568,62.495626659663614,-69.1829822662969,1,0,48708.37299999999,118.125:412.0;,118.125:412.0;,,0.0,118.125;
345,2024-04-05 03:16:00,117.93,117.93,117.93,117.93,4451.0,524928.0,1712258160,,,,,,,1.0,,,,2.245957907124426,5.558494590889154,0.2089999999999991,62.495626659663614,-70.52929309767364,1,0,121.21299999998882,118.125:412.0;117.93:412.0;,117.93:412.0;,,0.0,118.14;117.93;
346,2024-04-05 03:17:00,117.865,117.89,117.89,117.85,5625.0,662976.0,1712258220,,,,,,,,,,,2.241969595681077,5.558494590889154,0.2089999999999991,62.495626659663614,-69.36037131025036,0,0,48681.592999999986,117.93:412.0;,,117.865:412.0;,-107.12000000000211,117.93;
359,2024-04-05 03:30:00,117.69,117.69,117.75,117.69,7894.0,929312.0,1712259000,,,,,,,,,,,-0.0324690890882148,-4.780391977909986,0.1986428571428555,55.04506500798452,-77.32056160348023,0,0,97169.87299999999,,,117.69:412.0;,-98.88000000000375,
105,2024-04-05 23:16:00,116.895,116.78,116.895,116.78,10066.0,1175736.0,1712330160,1.0,,,,,,,,,,-9.9521786867395,7.843021417444675,0.2809285714285729,17.134364777984246,-76.84112041523753,1,0,48658.448,116.895:415.0;,116.895:415.0;,,0.0,116.895;
110,2024-04-05 23:21:00,116.515,116.39,116.515,116.39,17241.0,2007616.0,1712330460,,,,,,,,,,,-11.1563187535186,5.2620053834011244,0.276214285714287,17.134364777984246,-78.6059001685187,0,0,97012.173,,,116.515:415.0;,-157.6999999999981,
113,2024-04-05 23:24:00,116.48,116.35,116.48,116.315,14801.0,1723296.0,1712330640,,,,,1.0,,,,,,-7.02864672047637,5.2620053834011244,0.276214285714287,17.134364777984246,-74.92854530712948,1,0,48440.01299999999,116.48:417.0;,116.48:417.0;,,0.0,116.48;
237,2024-04-06 01:28:00,117.49,117.54,117.54,117.49,2786.0,327360.0,1712338080,,,,,,,,,,,85.09855367404992,76.52193103908267,0.1312857142857148,3.626074049030322,-22.39080396101224,0,0,97433.343,,,117.49:417.0;,421.1699999999962,
87,2024-04-10 22:58:00,119.06,119.026,119.06,119.026,15078.0,1794816.0,1712761080,,,,,,,1.0,,,,13.139581199131868,-18.954693401061604,0.4960000000000012,103.12862877813076,-71.32878848632016,1,0,48737.80299999999,119.06:409.0;,119.06:409.0;,,0.0,119.06;
124,2024-04-10 23:35:00,119.12,119.15,119.15,119.095,2536.0,302112.0,1712763300,,,,,,,,,,,35.6177150879261,-28.70779111779592,0.273928571428573,91.24876479745622,23.922801169495603,0,0,97457.883,,,119.12:409.0;,24.54000000000093,
203,2024-04-13 00:54:00,116.93,116.82,116.94,116.82,7069.0,826464.0,1712940840,,,,,1.0,,,,,,-0.1154909323383961,1.8253246927175013,0.206785714285714,29.803218729568187,-75.43436569594051,1,0,48815.003,116.93:416.0;,116.93:416.0;,,0.0,116.93;
216,2024-04-13 01:07:00,116.64,116.71,116.71,116.64,4854.0,566496.0,1712941620,,,,,,,,,,,-3.151251971937384,-3.362004941518336,0.192857142857143,24.06210796789054,-75.9578583833088,0,0,97337.24299999999,,,116.64:416.0;,-120.6400000000026,
366,2024-04-13 03:37:00,115.45,115.53,115.53,115.45,31651.0,3654464.0,1712950620,,,,,1.0,,,,,,1.3874279390261748,-5.904968279552129,0.1892142857142837,0.9071436888007298,-72.98947226211295,1,0,97337.24299999999,,,,0.0,
8,2024-04-15 21:39:00,114.895,114.92,115.1,114.895,45869.0,5273696.0,1713188340,1.0,,,,,,,,,,24.005346416640734,9.90163969040982,0.3637857142857135,-8.823049630686839,-64.98006727545935,1,0,48736.65799999999,114.895:423.0;,114.895:423.0;,,0.0,114.895;
12,2024-04-15 21:43:00,114.235,114.76,114.76,114.21,32021.0,3661072.0,1713188580,,,,,,,,,,,12.146988755017198,7.819600786710676,0.445928571428571,-8.823049630686839,-76.81208572238997,0,0,97058.063,,,114.235:423.0;,-279.1799999999986,
13,2024-04-15 21:44:00,114.54,114.99,114.99,114.51,30306.0,3476592.0,1713188640,,,,,1.0,,,,,,14.015127955711831,7.819600786710676,0.445928571428571,-8.823049630686839,-71.91527557405887,1,0,48493.102999999996,114.54:424.0;,114.54:424.0;,,0.0,114.54;
45,2024-04-15 22:16:00,116.13,116.05,116.13,116.05,9588.0,1113392.0,1713190560,,1.0,,,,,,,,,71.47981841508792,35.19855080164612,0.6695000000000023,-10.186534675994793,74.28960638349618,0,1,73112.663,114.54:212.0;,,116.13:212;,337.0799999999977,116.295;
87,2024-04-15 22:58:00,115.7,115.725,115.725,115.7,1619.0,187280.0,1713193080,,,,,,,,,,,55.7569529318415,70.14071554676872,0.4381428571428571,-10.403011956413934,48.81397980000008,0,0,97641.063,,,115.7:212.0;,245.91999999999928,
269,2024-04-16 02:00:00,113.801,113.77,113.801,113.665,41534.0,4722880.0,1713204000,,,,,,,1.0,,,,2.162705498805757,3.651615497160151,0.2710714285714236,-11.627423043526726,-76.13888758750598,1,0,49048.03599999999,113.801:427.0;,113.801:427.0;,,0.0,113.801;
281,2024-04-16 02:12:00,113.43,113.565,113.565,113.43,32627.0,3703552.0,1713204720,,,,,,,,,,,10.138887067730376,-3.0559637076374884,0.278499999999996,-11.627423043526726,5.91796029523965,0,0,97482.646,,,113.43:427.0;,-158.41699999999793,
22,2024-04-19 21:53:00,111.955,111.92,111.955,111.89,31217.0,3494872.0,1713534780,1.0,,,,,,,,,,15.759165473830867,-4.474778042445351,0.4684285714285719,63.2851980406808,-71.34738254200819,1,0,48782.221,111.955:435.0;,111.955:435.0;,,0.0,111.955;
44,2024-04-19 22:15:00,111.065,110.88,111.065,110.88,71280.0,7911920.0,1713536100,,,,,,,,,,,-4.0556404782608055,-7.158888128295956,0.6010000000000011,54.286520955990575,-72.50582295021886,0,0,97095.496,,,111.065:435.0;,-387.15000000000026,
47,2024-04-19 22:18:00,111.245,110.99,111.245,110.92,61410.0,6821392.0,1713536280,,,,,,,,,1.0,,0.3401646369367199,-7.158888128295956,0.6010000000000011,54.286520955990575,-62.95945498443987,1,0,48370.185999999994,111.245:438.0;,111.245:438.0;,,0.0,111.245;
133,2024-04-19 23:44:00,112.01,112.05,112.055,111.975,19661.0,2202048.0,1713541440,,,,,,,,,,,62.54343451704045,40.49207498515307,0.2713571428571443,42.73936480597088,-10.247489223659407,0,0,97430.56599999999,,,112.01:438.0;,335.0700000000003,
39,2024-04-29 22:10:00,125.995,126.005,126.02,125.895,29972.0,3775088.0,1714399800,,,,,,,1.0,,,,-25.863183830444605,16.59826106238549,0.6410714285714302,62.23528413343365,-78.17248247286231,1,0,48796.49599999999,125.995:386.0;,125.995:386.0;,,0.0,125.995;
58,2024-04-29 22:29:00,125.595,125.535,125.65,125.535,20191.0,2535968.0,1714400940,,,,,,,,,,,-4.868055739024186,0.0698785268253914,0.7064285714285725,62.23528413343365,-76.14055835184847,0,0,97276.166,,,125.595:386.0;,-154.4000000000022,
224,2024-05-01 01:15:00,124.939,124.935,124.94,124.935,4002.0,499936.0,1714497300,,,,,,,1.0,,1.0,,-1.6782589138290476,-12.006154460581683,0.1963571428571415,24.43563409469745,-71.41429357056603,1,0,48674.895,124.939:389.0;,124.939:389.0;,,0.0,124.939;
255,2024-05-01 01:46:00,124.955,125.01,125.01,124.955,4918.0,614880.0,1714499160,,,,,,,,,,,76.60605110924719,-7.695697011957904,0.165071428571428,20.690057139647596,-24.31358641698865,0,0,97282.39,,,124.955:389.0;,6.2240000000020785,
45,2024-05-06 22:16:00,137.995,137.795,137.995,137.795,18476.0,2548544.0,1715004960,,,,,,,1.0,,,,-16.475214120845678,15.877977177568653,0.8224285714285722,92.71606711572704,-72.53645897217254,1,0,48708.149999999994,137.995:352.0;,137.995:352.0;,,0.0,137.995;
124,2024-05-06 23:35:00,138.955,138.845,138.955,138.84,6097.0,846976.0,1715009700,,,,,,,,,,,67.7813919420687,13.51867361939992,0.3509285714285742,86.59571819812115,27.583784653694785,0,0,97620.31,,,138.955:352.0;,337.9200000000028,
43,2024-05-09 22:14:00,137.97,137.82,137.97,137.82,8867.0,1222944.0,1715264040,,,,,1.0,,,,,,-9.402128877950616,14.69625403031644,0.6069999999999993,45.32467375004116,-76.78399551228249,1,0,48916.9,137.97:353.0;,137.97:353.0;,,0.0,137.97;
47,2024-05-09 22:18:00,137.86,137.91,137.91,137.85,16664.0,2297248.0,1715264280,,,,,,,1.0,,,,-4.974788639369265,9.13085819296947,0.6377142857142856,45.32467375004116,-75.34235066459024,1,0,114.45999999999913,137.97:353.0;137.86:354.0;,137.86:354.0;,,0.0,137.97;137.86;
129,2024-05-09 23:40:00,138.565,138.43,138.565,138.39,11598.0,1606240.0,1715269200,,,,,,,,,,,80.34607209299665,13.197362386346144,0.2835714285714325,43.06089877238856,-16.610042153191994,0,0,98079.91500000001,,,138.565:353.0;138.565:354.0;,459.604999999994,
286,2024-05-10 02:17:00,136.7,136.61,136.7,136.61,9790.0,1337920.0,1715278620,,,,,1.0,,,,,,-14.306626646720089,-4.269573234798443,0.1996428571428583,35.35348859698169,-76.06898429341776,1,0,49278.015000000014,136.7:357.0;,136.7:357.0;,,0.0,136.7;
311,2024-05-10 02:42:00,136.5,136.58,136.58,136.5,4533.0,618880.0,1715280120,,,,,,,,,,,1.287338161282822,-5.354481921625954,0.1992857142857157,31.65420843235272,-73.55896666694822,0,0,98008.51500000001,,,136.5:357.0;,-71.39999999999594,
26,2024-05-14 21:57:00,137.355,137.4,137.4,137.27,17634.0,2422384.0,1715695020,1.0,,,,,,,,,,-19.884839304656424,16.958847417125767,0.6499999999999956,70.57319977219301,-76.6303902480542,1,0,49110.13500000002,137.355:356.0;,137.355:356.0;,,0.0,137.355;
133,2024-05-14 23:44:00,138.57,138.62,138.62,138.56,13547.0,1877280.0,1715701440,,,,,,,,,,,71.9264173875408,43.25367767821948,0.2604999999999994,54.28069826354093,-10.914557864329716,0,0,98441.05500000002,,,138.57:356.0;,432.5400000000012,
3,2024-05-20 21:34:00,147.358,145.89,147.358,145.855,209211.0,30630160.0,1716212040,1.0,,,,,,,,,,40.68482338329875,-5.530532930345274,0.2557857142857114,79.60640074260948,-39.41519054226876,1,0,49223.48300000002,147.358:334.0;,147.358:334.0;,,0.0,147.358;
4,2024-05-20 21:35:00,146.22,146.39,146.54,146.22,81289.0,11888880.0,1716212100,,,,,,,,,,,38.92075431816677,-1.468008477688585,0.4357857142857101,79.60640074260948,-60.1609315226076,0,0,98060.96300000002,,,146.22:334.0;,-380.09200000000175,
282,2024-05-22 02:13:00,144.675,144.62,144.71,144.61,14100.0,2038656.0,1716315180,,,,,,,1.0,,,,11.003382384084205,4.412403648330425,0.3207857142857132,52.30577027819845,-68.34963997244412,1,0,49160.81300000002,144.675:338.0;,144.675:338.0;,,0.0,144.675;
300,2024-05-22 02:31:00,144.345,144.37,144.38,144.31,8487.0,1225344.0,1716316260,,,,,,,,,,,7.973117650951604,-7.157501651812225,0.2530000000000001,47.54940444373074,-66.07324292010982,0,0,97949.42300000001,,,144.345:338.0;,-111.54000000000423,
62,2024-05-31 22:33:00,148.84,148.62,148.84,148.62,48979.0,7284896.0,1717165980,1.0,,,,,,,,,,0.7662980147891503,8.749972527386177,0.7270000000000039,34.05141312509306,-76.76570450480916,1,0,48981.06300000001,148.84:329.0;,148.84:329.0;,,0.0,148.84;
111,2024-05-31 23:22:00,149.3,149.25,149.325,149.25,16436.0,2454784.0,1717168920,,,,,,,,,,,80.97086327474142,13.978423964821552,0.4302857142857245,32.158213753003125,6.5677630375911695,0,0,98100.763,,,149.3:329.0;,151.34000000000262,
89,2024-06-04 23:00:00,144.88,144.885,144.92,144.84,11392.0,1651168.0,1717513200,,,,,,,1.0,,,,16.735469847675873,2.161210603841738,0.4724999999999966,5.661089983520206,-73.78449829171943,1,0,49131.32300000001,144.88:338.0;,144.88:338.0;,,0.0,144.88;
102,2024-06-04 23:13:00,144.325,144.281,144.34,144.27,16572.0,2392096.0,1717513980,,,,,,,,,,,0.2450893255008637,-4.652725407964908,0.4446428571428547,5.661089983520206,-76.61913456748466,0,0,97913.17300000001,,,144.325:338.0;,-187.5900000000023,
190,2024-06-12 00:41:00,147.37,147.47,147.47,147.36,7022.0,1034752.0,1718124060,1.0,,,,,,,,,,6.729482299037365,3.165108102810976,0.2398571428571451,108.57170634661156,-75.99842427251265,1,0,48986.333000000006,147.37:332.0;,147.37:332.0;,,0.0,147.37;
233,2024-06-12 01:24:00,147.48,147.416,147.5,147.416,4828.0,712128.0,1718126640,,,,,,,,,,,51.8326992691659,-1.4377078159098176,0.2489285714285744,106.4779261330594,59.13363238253624,0,0,97949.693,,,147.48:332.0;,36.51999999999509,
6,2024-06-20 21:37:00,144.29,145.03,145.03,144.29,61090.0,8847160.0,1718890620,1.0,,,,,,,,,,67.14689821668014,-5.831086318394881,0.3475714285714316,20.820623025602323,68.16862062252258,1,0,49035.383,144.29:339.0;,144.29:339.0;,,0.0,144.29;
16,2024-06-20 21:47:00,144.61,144.58,144.74,144.58,20785.0,3007712.0,1718891220,,,,,,,,,,,79.86706202552988,4.002552439529282,0.4554285714285718,20.820623025602323,71.192270704887,0,0,98058.17300000001,,,144.61:339.0;,108.48000000000732,
43,2024-06-20 22:14:00,142.82,142.63,142.86,142.61,33931.0,4843040.0,1718892840,,,,,,,1.0,,1.0,,-11.793583375916064,-5.50765439195213,0.6702857142857154,17.911156016136317,-75.92364966903286,1,0,49213.733000000015,142.82:342.0;,142.82:342.0;,,0.0,142.82;
167,2024-06-21 00:18:00,142.755,142.734,142.755,142.73,9010.0,1285632.0,1718900280,,,,,,,,,,,30.649198512273188,12.801616507126576,0.215214285714286,8.738594446862393,-49.4961904098593,0,0,98035.94300000001,,,142.755:342.0;,-22.229999999999222,
65,2024-06-21 22:36:00,140.574,140.61,140.61,140.47,28212.0,3964416.0,1718980560,,,,,,,1.0,,,,-1.7576549014006917,0.1554424593823427,0.6487142857142872,5.898192155334449,-77.0031455256523,1,0,49116.191000000006,140.574:348.0;,140.574:348.0;,,0.0,140.574;
127,2024-06-21 23:38:00,141.707,141.61,141.707,141.61,2796.0,396096.0,1718984280,,,,,,,,,,,95.70689282865624,12.09987732610864,0.2964285714285657,5.840947405716058,30.12141310582076,0,0,98430.22700000001,,,141.707:348.0;,394.2839999999935,
124,2024-06-24 23:35:00,141.62,141.66,141.69,141.62,20283.0,2873536.0,1719243300,,,,,1.0,,1.0,,,,-3.458687809317599,15.106103505224011,0.3457857142857169,38.9210758411834,-71.90967888227192,1,0,49288.087000000014,141.62:347.0;,141.62:347.0;,,0.0,141.62;
152,2024-06-25 00:03:00,141.92,142.01,142.01,141.92,14415.0,2046080.0,1719244980,,,,,,,,,,,68.08466670564079,1.6817005235247535,0.3394285714285762,37.81179808963445,34.78394044601278,0,0,98534.32700000002,,,141.92:347.0;,104.09999999999408,
6,2024-06-26 21:37:00,139.26,138.77,139.26,138.76,19571.0,2722304.0,1719409020,1.0,,,,,,,,,,18.12561395351393,0.2862937659228919,0.4353571428571428,11.727499363174154,64.69890206808557,1,0,49375.54700000002,139.26:353.0;,139.26:353.0;,,0.0,139.26;
8,2024-06-26 21:39:00,138.63,138.75,138.75,138.59,20511.0,2844256.0,1719409140,,,,,,,,,,,15.975340594964187,0.2862937659228919,0.4353571428571428,11.727499363174154,51.43306335095332,0,0,98311.93700000002,,,138.63:353.0;,-222.3899999999984,
220,2024-06-27 01:11:00,137.57,137.25,137.57,136.925,158345.0,21737152.0,1719421860,,,,,,,,,1.0,,-6.510120780888229,16.97272915289009,0.2721428571428532,5.698324070571857,-73.35371861276235,1,0,49061.87700000002,137.57:358.0;,137.57:358.0;,,0.0,137.57;
222,2024-06-27 01:13:00,137.2,136.95,137.55,136.95,173823.0,23871232.0,1719421980,,,,,,,,,,,-6.819270761202944,16.97272915289009,0.2721428571428532,5.698324070571857,-74.83746460320738,0,0,98179.47700000001,,,137.2:358.0;,-132.46000000000163,
223,2024-06-27 01:14:00,136.62,136.97,137.39,136.62,183677.0,25119040.0,1719422040,,,,,,,1.0,,,,-6.174182968907715,16.97272915289009,0.2721428571428532,5.698324070571857,-74.56478547024221,1,0,48996.27700000001,136.62:360.0;,136.62:360.0;,,0.0,136.62;
225,2024-06-27 01:16:00,136.37,137.13,137.13,136.306,182945.0,24947712.0,1719422160,,,,,,,,,,,-6.30738945145616,13.633432566454154,0.3532142857142832,5.698324070571857,-76.188127766901,0,0,98089.47700000001,,,136.37:360.0;,-90.0,
226,2024-06-27 01:17:00,137.31,136.76,137.5,136.7,123899.0,16993280.0,1719422220,,,,,1.0,,,,,,-5.848106509551613,13.633432566454154,0.3532142857142832,5.698324070571857,-73.90030655740864,1,0,48932.49700000001,137.31:358.0;,137.31:358.0;,,0.0,137.31;
240,2024-06-27 01:31:00,136.465,136.36,136.465,136.28,36310.0,4952192.0,1719423060,,,,,,,,,,,14.280237130822826,18.650635235210785,0.6053571428571404,3.968775181793262,-68.03395634987594,0,0,97786.967,,,136.465:358.0;,-302.5099999999996,
250,2024-06-28 01:41:00,132.771,132.79,132.81,132.77,15768.0,2092800.0,1719510060,,,,,,,1.0,,,,15.831754084354223,-4.937985426422429,0.181285714285715,5.01248855589461,-57.45101185206155,1,0,48927.23900000001,132.771:368.0;,132.771:368.0;,,0.0,132.771;
271,2024-06-28 02:02:00,132.575,132.625,132.625,132.53,20508.0,2717376.0,1719511320,,,,,,,,,,,20.972182216953293,-4.869907940773327,0.1675714285714308,3.624929078030988,-27.04925237673972,0,0,97714.839,,,132.575:368.0;,-72.12799999999925,
71,2024-07-01 22:42:00,130.97,130.5,130.97,130.5,90292.0,11791328.0,1719844920,1.0,,,,,,,,,,8.771681879977443,1.6743541532186723,0.594142857142858,15.01622372916316,-63.10801822766897,1,0,48863.02900000001,130.97:373.0;,130.97:373.0;,,0.0,130.97;
73,2024-07-01 22:44:00,130.9,130.65,130.92,130.65,55144.0,7216560.0,1719845040,,,,,,,,,1.0,,9.891375132744855,1.6743541532186723,0.594142857142858,15.01622372916316,-59.0729992379641,1,0,37.32900000000518,130.97:373.0;130.9:373.0;,130.9:373.0;,,0.0,130.97;130.9;
76,2024-07-01 22:47:00,130.28,130.29,130.306,130.28,60010.0,7818336.0,1719845220,,,,,,,,,,,3.723943592672303,-0.3455872379597906,0.4805714285714292,15.01622372916316,-74.95585583328442,0,0,48631.76900000001,130.9:373.0;,,130.28:373.0;,-257.36999999999915,130.9;
79,2024-07-01 22:50:00,130.26,130.22,130.26,130.09,74441.0,9689920.0,1719845400,,,,,,,,,,,2.5142624305100227,-1.6037947526334762,0.4562857142857147,15.01622372916316,-74.07688075829553,0,0,97218.74900000001,,,130.26:373.0;,-238.7200000000055,
62,2024-07-02 22:33:00,131.76,131.52,131.76,131.52,15669.0,2063184.0,1719930780,1.0,,,,,,,,,,-8.890871417692836,7.154177104568291,0.547785714285711,28.037048193569376,-72.65666749289913,1,0,48731.06900000002,131.76:368.0;,131.76:368.0;,,0.0,131.76;
124,2024-07-02 23:35:00,132.5,132.37,132.5,132.37,4666.0,618080.0,1719934500,,,,,,,,,,,102.18467341176456,15.652645435622505,0.3369285714285662,28.977283364693967,58.518930522581215,0,0,97491.06900000002,,,132.5:368.0;,272.32000000000335,
12,2024-07-05 21:43:00,135.05,135.18,135.18,135.05,48228.0,6515960.0,1720186980,1.0,,,,,,,,,,19.9565992059334,8.378028159612796,0.297857142857146,100.33053477012224,-75.0577491113413,1,0,48873.06900000001,135.05:360.0;,135.05:360.0;,,0.0,135.05;
23,2024-07-05 21:54:00,134.908,134.77,134.908,134.77,13169.0,1775576.0,1720187640,,,,,,,,,,,-5.932408525840202,4.870735333418594,0.3753571428571425,100.33053477012224,-71.67478337487168,0,0,97439.94900000001,,,134.908:360.0;,-51.12000000000876,
28,2024-07-05 21:59:00,133.9,133.435,133.9,133.435,63096.0,8434384.0,1720187940,,,,,,,,,1.0,,-21.38369691013041,0.1022417881670065,0.4556428571428564,100.33053477012224,-77.93343241902372,1,0,48700.34900000001,133.9:364.0;,133.9:364.0;,,0.0,133.9;
41,2024-07-05 22:12:00,133.3,133.29,133.36,133.29,36231.0,4830192.0,1720188720,,,,,,,,,,,-20.10164063544908,-7.53617494637767,0.598714285714282,93.50954980507444,-75.99283986284983,0,0,97221.54900000001,,,133.3:364.0;,-218.39999999999793,
347,2024-07-13 03:18:00,142.23,142.25,142.279,142.23,8768.0,1246016.0,1720811880,,,,,1.0,,,,,,-2.840405023490277,10.808490628628576,0.1721428571428487,74.00713090210988,-72.26545771850057,1,0,48721.11900000002,142.23:341.0;,142.23:341.0;,,0.0,142.23;
386,2024-07-13 03:57:00,142.55,142.48,142.55,142.48,30010.0,4278720.0,1720814220,,,,,,,,,,,59.15549251082784,-3.2344848680696145,0.1893571428571354,72.15348615554947,81.82009086643627,0,0,97330.66900000002,,,142.55:341.0;,109.12000000000737,142.67;
5,2024-07-15 21:36:00,135.505,135.13,135.52,134.995,207319.0,28044960.0,1721050560,1.0,,,,,,,,,,25.48726966168259,-4.882920487815298,0.7157857142857093,75.29517507645605,-74.46429066963293,1,0,48684.374000000025,135.505:359.0;,135.505:359.0;,,0.0,135.505;
12,2024-07-15 21:43:00,137.19,137.16,137.19,136.92,65771.0,9019200.0,1721050980,,1.0,,,,,,,,1.0,24.404674715061148,-3.534966232353796,0.8467142857142805,75.29517507645605,68.18365080507301,0,1,73378.57400000002,135.505:179.0;,,137.19:180;,303.3000000000004,137.352;
53,2024-07-15 22:24:00,136.55,136.57,136.63,136.55,44030.0,6013024.0,1721053440,,,,,,,,,,,60.69489601518674,15.53986600946179,1.15114285714286,65.90544480470885,-23.580090173740004,0,0,97821.02400000002,,,136.55:179.0;,187.05500000000285,
19,2024-07-17 21:50:00,132.46,132.45,132.52,132.44,60447.0,8008576.0,1721224200,1.0,,,,,,,,,,5.461984410064446,4.435639375078011,0.5117857142857157,15.179574381304365,-75.79141876938692,1,0,48943.284000000014,132.46:369.0;,132.46:369.0;,,0.0,132.46;
38,2024-07-17 22:09:00,132.33,132.32,132.42,132.27,44167.0,5846080.0,1721225340,,,,,,,,,,,1.4036005203849875,1.8973776522672023,0.5937857142857135,11.396551024363916,-71.04183273183459,0,0,97773.05400000002,,,132.33:369.0;,-47.96999999999832,
176,2024-07-18 00:27:00,130.48,130.3,130.5,130.3,38094.0,4971392.0,1721233620,,,,,,,1.0,,1.0,,-22.365414052731445,7.637919191296728,0.3142857142857106,1.2354508084988538,-78.15772575428643,1,0,48973.53400000002,130.48:374.0;,130.48:374.0;,,0.0,130.48;
178,2024-07-18 00:29:00,130.53,130.68,130.68,130.53,22489.0,2935872.0,1721233740,,,,,1.0,,,,,,-17.761181402419467,7.637919191296728,0.3142857142857106,1.2354508084988538,-77.56236294185145,1,0,155.31400000002031,130.48:374.0;130.53:374.0;,130.53:374.0;,,0.0,130.53;130.53;
295,2024-07-18 02:26:00,131.83,131.95,131.955,131.83,5632.0,742464.0,1721240760,,,,,,,,,,,62.95788546875053,94.76537866418032,0.1901428571428575,-1.6810471732141965,-38.29877482427752,0,0,98764.15400000004,,,131.83:374.0;131.83:374.0;,991.1000000000128,
105,2024-07-18 23:16:00,130.39,130.485,130.57,130.39,14926.0,1947824.0,1721315760,,,,,1.0,,1.0,,,,-3.653507177519821,2.777067320208161,0.3998571428571397,9.828826547813756,-77.57276715529356,1,0,49476.73400000004,130.39:378.0;,130.39:378.0;,,0.0,130.39;
236,2024-07-19 01:27:00,132.14,132.05,132.14,132.05,6313.0,834048.0,1721323620,,,,,,,,,,,78.0193854162394,44.32111595458963,0.1832857142857185,10.19647839398699,-8.624663503160521,0,0,99425.65400000004,,,132.14:378.0;,661.5,
273,2024-07-25 02:04:00,132.23,132.19,132.23,132.18,6465.0,854400.0,1721844240,,,,,1.0,,,,,,-22.11698383201357,16.758889714029294,0.1691428571428547,17.392431105568676,-76.17695802562976,1,0,49839.404000000046,132.23:375.0;,132.23:375.0;,,0.0,132.23;
288,2024-07-25 02:19:00,132.11,132.06,132.11,132.06,7633.0,1008320.0,1721845140,,,,,,,,,,,-17.419486856519,4.7734851439807215,0.162714285714281,17.392431105568676,-77.1606933698998,0,0,99380.65400000005,,,132.11:375.0;,-44.99999999999105,
303,2024-07-25 02:34:00,131.76,131.78,131.78,131.76,5486.0,722848.0,1721846040,,,,,,,,,1.0,,-14.605901394124317,-4.675172681770505,0.1648571428571383,12.07909936958228,-78.25334916729116,1,0,49707.13400000006,131.76:377.0;,131.76:377.0;,,0.0,131.76;
314,2024-07-25 02:45:00,131.58,131.6,131.6,131.58,546.0,71776.0,1721846700,,,,,,,,,,,-4.687257401765752,-9.736075567243963,0.1598571428571407,12.07909936958228,-74.25884625893666,0,0,99312.79400000005,,,131.58:377.0;,-67.85999999999186,
3,2024-07-26 21:34:00,128.695,128.66,128.809,128.66,18520.0,2383452.0,1722000840,1.0,,,,,,,,,,2.7562068435514604,-1.5554508743621795,0.3223571428571412,13.57932918690323,-51.00238238667016,1,0,49765.219000000056,128.695:385.0;,128.695:385.0;,,0.0,128.695;
60,2024-07-26 22:31:00,129.405,129.35,129.42,129.35,5136.0,664416.0,1722004260,,1.0,,,,,,,,,116.65321305453202,20.77420412991056,0.6584285714285747,13.366894908752364,64.74666972946478,0,1,74740.38400000005,128.695:192.0;,,129.405:193;,137.03000000000154,129.48;
97,2024-07-26 23:08:00,130.36,130.415,130.415,130.3,4084.0,532272.0,1722006480,,,,,,,,,,1.0,103.52834217448174,48.52179406790103,0.3560714285714295,15.127337725976735,62.27252921675909,0,1,99769.50400000004,,,130.36:192.0;,319.68000000000393,130.4;
69,2024-07-29 22:40:00,126.901,126.91,126.95,126.9,27194.0,3451424.0,1722264000,,,,,,,1.0,,1.0,,-8.844447484206341,5.274322676799926,0.9432857142857144,37.63793148883211,-62.02203783205433,1,0,49897.411000000044,126.901:393.0;,126.901:393.0;,,0.0,126.901;
96,2024-07-29 23:07:00,126.64,126.71,126.76,126.64,25514.0,3233344.0,1722265620,,,,,,,,,,,16.155995689875013,-2.0991886825995465,0.3558571428571418,33.61587224243294,-69.0865924120049,0,0,99666.93100000004,,,126.64:393.0;,-102.5729999999983,
68,2024-07-30 22:39:00,126.08,125.955,126.09,125.955,10610.0,1336992.0,1722350340,1.0,,,,,,,,,,2.6434023894598724,4.391857745590315,0.49842857142857,7.079361941851602,-75.78352875011178,1,0,49865.33100000004,126.08:395.0;,126.08:395.0;,,0.0,126.08;
90,2024-07-30 23:01:00,125.765,125.73,125.77,125.73,13595.0,1710016.0,1722351660,,,,,,,,,,,11.74383810756435,-4.9828957049168,0.3066428571428586,3.136566497527724,-60.75503291297001,0,0,99542.50600000005,,,125.765:395.0;,-124.4249999999991,
129,2024-07-30 23:40:00,124.805,124.7,124.805,124.66,7178.0,895520.0,1722354000,,,,,,,,,1.0,,9.308037856455272,-11.275444174629255,0.2939285714285741,0.3476749402356489,-73.77474799173186,1,0,49745.31100000005,124.805:399.0;,124.805:399.0;,,0.0,124.805;
131,2024-07-30 23:42:00,124.631,124.75,124.75,124.631,26205.0,3268064.0,1722354120,,,,,,,1.0,,,,8.78341186634444,-11.275444174629255,0.2939285714285741,0.3476749402356489,-70.21515536068456,1,0,17.542000000052212,124.805:399.0;124.631:399.0;,124.631:399.0;,,0.0,124.805;124.631;
144,2024-07-30 23:55:00,124.43,124.5,124.52,124.42,22756.0,2832896.0,1722354900,,,,,,,,,,,-0.3182990742672729,-12.654395863552722,0.2707142857142882,0.3476749402356489,-76.56101485425887,0,0,49665.11200000005,124.631:399.0;,,124.43:399.0;,-149.625,124.74;
146,2024-07-30 23:57:00,124.24,124.52,124.52,124.24,37215.0,4627968.0,1722355020,,,,,,,,,,,2.0901232740491764,-12.654395863552722,0.2707142857142882,0.3476749402356489,-75.73000893567765,0,0,99236.87200000005,,,124.24:399.0;,-156.00900000000212,
213,2024-07-31 01:04:00,123.39,123.365,123.403,123.356,14246.0,1758208.0,1722359040,,,,,1.0,,,,,,-7.867195681300281,-8.834698745658521,0.2732142857142869,-7.304206974705714,-73.1696261963326,1,0,49510.70200000005,123.39:403.0;,123.39:403.0;,,0.0,123.39;
244,2024-07-31 01:35:00,123.34,123.36,123.36,123.34,3213.0,396352.0,1722360900,,,,,,,,,,,9.326179172393935,-7.622019976559802,0.1797857142857129,-9.15693583072295,-72.09562772326464,0,0,99216.72200000005,,,123.34:403.0;,-20.149999999998855,
179,2024-08-02 00:30:00,128.02,128.15,128.15,128.02,4422.0,566240.0,1722529800,,,,,1.0,,,,1.0,,4.529652300096849,12.773535082267388,0.3196428571428588,82.9086422986018,-74.57961516302119,1,0,49672.98200000005,128.02:387.0;,128.02:387.0;,,0.0,128.02;
218,2024-08-02 01:09:00,128.33,128.23,128.335,128.23,2125.0,272640.0,1722532140,,,,,,,,,,,90.97698058737762,9.202862942456605,0.2864285714285707,85.17408599673955,37.03338963651052,0,0,99336.69200000005,,,128.33:387.0;,119.97000000000088,
251,2024-08-02 01:42:00,127.68,127.69,127.73,127.68,9243.0,1180352.0,1722534120,,,,,,,1.0,,,,-14.374028749846936,-11.636367269528025,0.2896428571428596,85.79407728619992,-77.7526207593148,1,0,49796.85200000005,127.68:388.0;,127.68:388.0;,,0.0,127.68;
296,2024-08-02 02:27:00,127.7,127.72,127.72,127.69,7674.0,980096.0,1722536820,,,,,,,,,,,61.94998852036301,-8.908185327727054,0.264642857142861,86.2268460016121,-17.24958984461544,0,0,99344.45200000005,,,127.7:388.0;,7.759999999998456,
320,2024-08-08 02:51:00,132.86,132.85,132.86,132.82,5178.0,687840.0,1723056660,,,,,,,,,1.0,,9.826179702722882,-10.664863502652452,0.3223571428571432,102.72456181164102,-65.73531421462948,1,0,49787.67200000004,132.86:373.0;,132.86:373.0;,,0.0,132.86;
359,2024-08-08 03:30:00,133.18,133.14,133.18,133.14,6672.0,888352.0,1723059000,,,,,,,,,,,88.71307196718021,-2.6984583375091944,0.2564285714285716,99.682196888,59.09688678776025,0,0,99463.81200000003,,,133.18:373.0;,119.35999999999746,133.46;
58,2024-08-14 22:29:00,142.085,142.0,142.085,142.0,13859.0,1968704.0,1723645740,,,,,,,1.0,,,,-16.393425331003932,10.443822732349446,0.7221428571428561,93.02145544452532,-77.71283691414803,1,0,49734.062000000034,142.085:350.0;,142.085:350.0;,,0.0,142.085;
80,2024-08-14 22:51:00,141.525,141.58,141.58,141.4,25945.0,3669792.0,1723647060,,,,,,,,,,,-4.736067652515981,-12.102350105123264,0.4537857142857108,86.13001938872017,-73.5378726324838,0,0,99267.81200000003,,,141.525:350.0;,-196.0000000000008,
183,2024-08-21 00:34:00,144.24,144.12,144.24,144.11,6300.0,908544.0,1724171640,,,,,1.0,,,,,,-8.09694605325464,-8.246057157052036,0.3455000000000012,50.27839569730034,-77.34472613247124,1,0,49649.25200000003,144.24:344.0;,144.24:344.0;,,0.0,144.24;
220,2024-08-21 01:11:00,144.45,144.245,144.48,144.245,10011.0,1445952.0,1724173860,,,,,,,,,,,84.66068828886165,-11.312101692944594,0.2937857142857142,40.20649232219179,27.102464806540585,0,0,99340.05200000003,,,144.45:344.0;,72.23999999999296,
305,2024-08-21 02:36:00,144.06,144.0,144.06,144.0,24872.0,3581632.0,1724178960,,,,,1.0,,,,,,-24.721964590534533,2.505496554740517,0.225285714285714,14.238552080166812,-78.45727263127532,1,0,49783.412000000026,144.06:344.0;,144.06:344.0;,,0.0,144.06;
325,2024-08-21 02:56:00,143.94,144.0,144.02,143.94,6395.0,920640.0,1724180160,,,,,,,,,,,-5.775810422053517,-2.4183558941631134,0.1799285714285718,14.238552080166812,-77.26962848735538,0,0,99298.77200000003,,,143.94:344.0;,-41.280000000001564,
45,2024-08-23 22:16:00,139.43,139.57,139.84,139.43,102247.0,14275904.0,1724422560,,,,,,,1.0,,,,-4.009837708678489,16.45662198219199,1.2443571428571425,38.992768595856745,-77.1064438447583,1,0,49661.692000000025,139.43:356.0;,139.43:356.0;,,0.0,139.43;
79,2024-08-23 22:50:00,138.39,138.209,138.39,138.205,123110.0,17029760.0,1724424600,,,,,,,,,,,16.36942262106176,-5.691083464788889,0.8682142857142837,31.36716310517828,-72.58754157055222,0,0,98928.53200000002,,,138.39:356.0;,-370.2400000000073,
41,2024-08-26 22:12:00,102.305,102.18,102.39,102.15,233444.0,23864832.0,1724681520,,,1.0,,,,,,,,-11.315636284598622,18.29205021166805,3.6407142857142825,-3.8375255414599536,-78.3845234586104,1,0,49515.21700000002,102.305:483.0;,102.305:483.0;,,0.0,102.305;
69,2024-08-26 22:40:00,97.035,96.97,97.035,96.82,692252.0,67154432.0,1724683200,,,,,,,,,,,3.6149302003067216,-5.674430589557247,4.004428571428571,-6.147673706329677,-73.24168311063355,0,0,96383.12200000002,,,97.035:483.0;,-2545.410000000005,
98,2024-08-27 23:09:00,96.81,96.66,96.83,96.66,83220.0,8063104.0,1724771340,,,1.0,,,,,,,,1.7221972590151324,-15.5846909812346,0.57792857142857,5.676905092889246,18.32947201550613,1,0,48268.55200000002,96.81:497.0;,96.81:497.0;,,0.0,96.81;
117,2024-08-27 23:28:00,96.44,96.44,96.48,96.435,174076.0,16790272.0,1724772480,,,,,,,,,,,6.749006996576043,-18.672027638402437,0.4329285714285699,5.676905092889246,-55.922432160677374,0,0,96199.23200000002,,,96.44:497.0;,-183.89000000000226,
5,2024-08-28 21:36:00,93.89,93.955,93.955,93.89,145468.0,13657888.0,1724852160,1.0,,,,,,,,1.0,,23.364221314248887,18.397466420436373,0.493785714285713,0.2764699065453264,-14.489651790128956,1,0,48127.55200000002,93.89:512.0;,93.89:512.0;,,0.0,93.89;
9,2024-08-28 21:40:00,92.65,92.85,92.94,92.65,438134.0,40668000.0,1724852400,,,,,,,,,,,11.796679824892522,16.84868178155247,0.5927142857142849,0.2764699065453264,-71.04344353695654,0,0,95564.35200000001,,,92.65:512.0;,-634.8799999999974,
10,2024-08-28 21:41:00,92.86,92.965,92.98,92.86,184744.0,17171200.0,1724852460,,,,,,,1.0,,,,10.641298148957851,16.84868178155247,0.5927142857142849,0.2764699065453264,-70.95228675156243,1,0,47555.73200000001,92.86:517.0;,92.86:517.0;,,0.0,92.86;
15,2024-08-28 21:46:00,92.37,92.783,92.8,92.37,320105.0,29635840.0,1724852760,,,,,1.0,,,,,,6.7117062417048245,16.788542446452105,0.6559285714285709,0.2764699065453264,-67.8572497355077,1,0,77.5520000000106,92.86:517.0;92.37:514.0;,92.37:514.0;,,0.0,93.03;92.37;
21,2024-08-28 21:52:00,91.94,91.93,92.03,91.8,361694.0,33250880.0,1724853120,,,,,,,,,,,1.6824145069512897,15.031259097903217,0.6869999999999996,0.2764699065453264,-70.26791078482717,0,0,47610.53200000001,92.37:514.0;,,91.94:517.0;,-475.6400000000009,92.55;
34,2024-08-28 22:05:00,91.46,91.56,91.63,91.46,148838.0,13625856.0,1724853900,,,,,,,,,,,-7.089222873030671,8.189689604235124,0.7594999999999997,-0.1712017840068487,-76.16032436340896,0,0,94620.97200000001,,,91.46:514.0;,-467.7400000000056,
61,2024-08-28 22:32:00,90.44,90.32,90.46,90.32,210515.0,19041280.0,1724855520,,,1.0,,,,,,,,-2.1318164450453594,1.1485181606571755,0.7702857142857117,-0.5702770359404372,-77.36448510926596,1,0,46597.33200000001,90.44:531.0;,90.44:531.0;,,0.0,90.44;
81,2024-08-28 22:52:00,89.908,89.78,89.95,89.78,139192.0,12504576.0,1724856720,,,,,,,,,,,2.900148969690008,-1.8842915555105504,0.4824999999999986,-0.5702770359404372,-58.19022307844596,0,0,94338.48000000001,,,89.908:531.0;,-282.49199999999814,
94,2024-08-28 23:05:00,88.98,89.13,89.15,88.98,372532.0,33207552.0,1724857500,,,,,1.0,,,,,,4.077649348811509,-3.324258561195947,0.4361428571428568,-0.9153813574650744,63.55367358877885,1,0,46289.280000000006,88.98:540.0;,88.98:540.0;,,0.0,88.98;
103,2024-08-28 23:14:00,89.019,89.13,89.13,88.95,92284.0,8213504.0,1724858040,,,,,,,,,,,21.71500497032616,-2.2768617573670333,0.443642857142857,-0.9153813574650744,80.41516164879853,0,0,94359.54000000001,,,89.019:540.0;,21.060000000000798,
28,2024-09-04 21:59:00,96.05,95.899,96.05,95.899,44927.0,4312688.0,1725458340,,,,,1.0,,,,,,-16.7357181387126,14.14957125285062,0.4423571428571416,112.5108723275656,-76.1290370916952,1,0,47198.99000000001,96.05:491.0;,96.05:491.0;,,0.0,96.05;
31,2024-09-04 22:02:00,95.18,95.18,95.3,95.18,62121.0,5917360.0,1725458520,,,,,,,,,,,-18.56827883881584,7.305638198393893,0.4630714285714278,109.1551375178459,-77.62787310234847,0,0,93932.37000000002,,,95.18:491.0;,-427.16999999999524,
35,2024-09-04 22:06:00,95.08,95.035,95.08,95.01,69168.0,6574912.0,1725458760,,,,,,,1.0,,,,-17.32671471114064,1.600657180638052,0.5423571428571411,109.1551375178459,-77.29156450062422,1,0,46772.690000000024,95.08:496.0;,95.08:496.0;,,0.0,95.08;
50,2024-09-04 22:21:00,94.31,94.381,94.53,94.31,200145.0,18894080.0,1725459660,,,,,,,,,,,-8.305911880844391,-10.760047947386909,0.6455714285714284,109.1551375178459,-76.95884697865495,0,0,93550.45000000003,,,94.31:496.0;,-381.919999999998,
75,2024-09-04 22:46:00,93.66,93.61,93.71,93.59,59100.0,5530752.0,1725461160,,,1.0,,,,,,,,1.6284426083401584,-23.361062867339285,0.5667857142857124,103.0641141033741,-76.87433115519141,1,0,46439.47000000003,93.66:503.0;,93.66:503.0;,,0.0,93.66;
132,2024-09-04 23:43:00,92.98,92.975,92.98,92.83,80526.0,7481408.0,1725464580,,,,,,,,,,,88.31150528817201,-15.312779652832234,0.431285714285715,89.70821700590778,44.17993212505202,0,0,93208.41000000003,,,92.98:503.0;,-342.03999999999627,
332,2024-09-05 03:03:00,92.1,92.09,92.1,92.05,23011.0,2119936.0,1725476580,,,,,1.0,,,,,,-14.01731102904089,15.011713632728055,0.1593571428571424,22.624537795300967,-76.55325199745262,1,0,46053.210000000036,92.1:512.0;,92.1:512.0;,,0.0,92.1;
386,2024-09-05 03:57:00,92.76,92.738,92.76,92.71,96549.0,8943104.0,1725479820,,,,,,,,,,,103.60315476103996,57.89831762880091,0.1903571428571422,16.340554362017357,43.6411006919483,0,0,93546.33000000005,,,92.76:512.0;,337.92000000000553,92.915;
