,dt,open,close,high,low,vol,turnover,ts,icon_1,icon_2,icon_11,icon_12,icon_13,icon_41,icon_34,icon_35,icon_38,icon_39,jw1,jw5,atr5,jw30,baijiao,buy_signal,sell_signal,cash,chicang,buy_detail,sell_detail,profit,max_zhiying_prices
6,2024-01-03 22:37:00,241.87,242.315,242.356,241.87,849775.0,205808384.0,1704292620,1.0,,,,,,,,1.0,,38.14909312205533,10.98983263977415,1.1155714285714242,,-74.86366312048216,1,0,50174.78,241.87:206.0;,241.87:206.0;,,0.0,241.87;
15,2024-01-03 22:46:00,240.367,240.296,240.397,240.296,842589.0,202604800.0,1704293160,,,,,,,,,,,-0.2382932526315073,4.963081791136361,1.2131428571428535,,-77.01332693318763,0,0,99690.382,,,240.367:206.0;,-309.61800000000295,
18,2024-01-03 22:49:00,241.25,240.97,241.25,240.86,454330.0,109517056.0,1704293340,,,,,1.0,,,,,,-3.679578586303592,4.963081791136361,1.2131428571428535,,-75.40286157736888,1,0,49751.632,241.25:207.0;,241.25:207.0;,,0.0,241.25;
27,2024-01-03 22:58:00,238.984,239.15,239.185,238.905,840598.0,200770560.0,1704293880,,,,,,,,,,,-13.427615418812977,-0.4992705905357582,1.291642857142855,,-78.21943673445156,0,0,99221.32,,,238.984:207.0;,-469.0619999999982,
36,2024-01-03 23:07:00,239.745,239.43,239.98,239.43,479878.0,114924032.0,1704294420,,,,,,,1.0,,,,-7.432368492801718,-4.676940285003667,1.3991428571428568,,-69.2601185672658,1,0,49354.36000000001,239.745:208.0;,239.745:208.0;,,0.0,239.745;
41,2024-01-03 23:12:00,237.42,237.17,237.53,237.17,670024.0,158840832.0,1704294720,,,,,,,,,,,-9.101061941933544,-6.606963835858018,1.4867857142857122,,-76.16298047029616,0,0,98737.72,,,237.42:208.0;,-483.60000000000355,
292,2024-01-05 03:23:00,239.425,239.351,239.425,239.305,159968.0,38342656.0,1704396180,1.0,,,,,,,,,,-14.595509955620471,19.11644939623494,0.503857142857143,,-76.35189634187172,1,0,49416.17,239.425:206.0;,239.425:206.0;,,0.0,239.425;
348,2024-01-05 04:19:00,239.255,239.28,239.29,239.14,214824.0,51429376.0,1704399540,,,,,,,,,,,84.31748308960165,1.2198982109626684,0.465285714285715,,36.27808830104818,0,0,98702.7,,,239.255:206.0;,-35.02000000000328,
387,2024-01-05 04:58:00,238.12,238.06,238.12,237.95,259624.0,61849600.0,1704401880,,,,,,,,,1.0,,-13.052358234214708,1.8981277510279284,0.5205714285714313,,-76.87807293389976,1,0,98702.7,,,,0.0,
37,2024-01-09 23:08:00,234.1,233.78,234.1,233.5,779956.0,181522432.0,1704812880,,,,,,,1.0,,,,-4.176502063969693,12.76848700206358,0.8861428571428637,64.47010292422664,-73.52328007049879,1,0,49541.7,234.1:210.0;,234.1:210.0;,,0.0,234.1;
45,2024-01-09 23:16:00,233.49,233.79,233.896,233.49,438620.0,101580800.0,1704813360,,,,,,,,,1.0,,-2.951965214169448,0.1934908073378665,1.0454285714285751,64.47010292422664,-75.63409224388761,1,0,275.3099999999977,234.1:210.0;233.49:211.0;,233.49:211.0;,,0.0,234.205;233.49;
59,2024-01-09 23:30:00,232.177,232.35,232.35,232.116,713532.0,164593152.0,1704814200,,,,,,,,,,,1.715704837814492,-13.897230900629763,1.1993571428571426,56.38017544465127,-76.96618030585338,0,0,98021.82699999999,,,232.177:210.0;232.177:211.0;,-680.8730000000039,
38,2024-01-11 23:09:00,226.859,226.67,226.859,226.58,303134.0,67985920.0,1704985740,,,,,,,,,1.0,,-2.439674186817492,14.216180265267084,1.336500000000001,19.006600347606277,-76.50540549360852,1,0,49020.28299999999,226.859:216.0;,226.859:216.0;,,0.0,226.859;
79,2024-01-11 23:50:00,226.76,226.69,226.76,226.515,387332.0,87550976.0,1704988200,,,,,,,,,,,42.10589442870858,-7.430080580178711,0.9912857142857152,17.22859318169833,-59.795094439202,0,0,98000.44299999998,,,226.76:216.0;,-21.38400000000388,
98,2024-01-13 00:09:00,220.87,221.155,221.169,220.87,323788.0,71537664.0,1705075740,,,,,,,,,1.0,,14.142387592360812,14.810658766981106,0.8492142857142844,11.990600059003564,-72.30345125078998,1,0,49188.17299999998,220.87:221.0;,220.87:221.0;,,0.0,220.87;
123,2024-01-13 00:34:00,220.95,221.08,221.08,220.91,346748.0,76603392.0,1705077240,,,,,,,,,,,93.93272517373144,10.354299943585346,0.6787857142857153,11.5300691648517,68.08718472496295,0,0,98018.12299999998,,,220.95:221.0;,17.679999999996483,
132,2024-01-13 00:43:00,219.64,219.467,219.64,219.4,279028.0,61069312.0,1705077780,,,,,,,1.0,,,,27.90543000557288,4.796273248323303,0.7757142857142867,11.5300691648517,-71.85607855417715,1,0,49038.402999999984,219.64:223.0;,219.64:223.0;,,0.0,219.64;
144,2024-01-13 00:55:00,218.73,218.38,218.73,218.38,425320.0,92781568.0,1705078500,,,,,,,,,,,-7.0368027814749965,-4.805285612894181,0.7479285714285737,11.5300691648517,-76.29826357322295,0,0,97815.19299999998,,,218.73:223.0;,-202.92999999999924,
149,2024-01-13 01:00:00,218.26,218.25,218.27,218.161,299200.0,65175552.0,1705078800,,,,,1.0,,,,,,-9.781027399799434,-6.593276377637039,0.7433571428571436,9.58732625417364,-73.89155800499722,1,0,48924.95299999999,218.26:224.0;,218.26:224.0;,,0.0,218.26;
243,2024-01-13 02:34:00,219.099,219.14,219.159,219.07,144464.0,31606784.0,1705084440,,,,,,,,,,,53.74674283747345,11.161828780492485,0.4865714285714294,8.679310728250794,-19.53868875375274,0,0,98003.12899999999,,,219.099:224.0;,187.9359999999997,
138,2024-01-20 00:49:00,207.93,207.92,207.947,207.82,214736.0,44527616.0,1705682940,,,,,,,1.0,,1.0,,12.754613695268231,10.85418763736807,0.7487142857142837,15.436557843012444,-75.87328252669396,1,0,49139.57899999998,207.93:235.0;,207.93:235.0;,,0.0,207.93;
196,2024-01-20 01:47:00,209.3,209.268,209.3,209.268,192256.0,40119296.0,1705686420,,,,,,,,,,,93.1907473638185,18.697984117687227,0.5094285714285759,13.919950005112184,39.08338787146575,0,0,98325.07899999998,,,209.3:235.0;,321.95000000000107,
230,2024-01-23 02:21:00,207.98,208.075,208.075,207.83,217824.0,45166592.0,1705947660,,,,,,,1.0,,,,-8.565915493180626,-15.605070371159307,0.5450714285714265,31.631866137821284,-76.04540092173107,1,0,49241.798999999985,207.98:236.0;,207.98:236.0;,,0.0,207.98;
282,2024-01-23 03:13:00,208.18,208.078,208.215,208.078,297152.0,61693952.0,1705950780,,,,,,,,,,,97.51523756860888,-4.396102203958513,0.5163571428571417,25.52248119344199,58.2909430310895,0,0,98372.27899999998,,,208.18:236.0;,47.200000000004025,
291,2024-01-23 03:22:00,206.605,206.92,207.138,206.605,417392.0,86198272.0,1705951320,,,1.0,,1.0,,,,,,13.731427556343874,-6.511099034096148,0.6026428571428559,25.52248119344199,-77.22795339347483,1,0,49406.893999999986,206.605:237.0;,206.605:237.0;,,0.0,206.605;
359,2024-01-23 04:30:00,209.545,209.432,209.59,209.401,418032.0,87369728.0,1705955400,,,,,,,,,,,121.05866087248036,43.76315215680022,0.5197857142857133,21.214375944565084,72.04159474038002,0,0,99069.05899999998,,,209.545:237.0;,696.7799999999995,209.545;
295,2024-01-25 03:26:00,208.45,208.48,208.565,208.36,273320.0,56784896.0,1706124360,,,,,,,,,1.0,,5.283138351134664,0.5229634866204407,0.4951428571428603,40.60878172276272,-75.2259146562834,1,0,49666.408999999985,208.45:237.0;,208.45:237.0;,,0.0,208.45;
327,2024-01-25 03:58:00,208.641,208.75,208.75,208.56,230048.0,47906816.0,1706126280,,,,,,,,,,,78.5961913180879,1.88953653725612,0.4884285714285771,37.70355006392754,65.79494560296371,0,0,99114.32599999999,,,208.641:237.0;,45.26700000000059,
351,2024-01-25 04:22:00,207.62,207.7,207.7,207.57,208040.0,43083776.0,1706127720,,,,,,,1.0,,,,8.018710454979754,-5.020257581165694,0.5599285714285733,35.35461178903085,-77.2348019515995,1,0,49700.76599999999,207.62:238.0;,207.62:238.0;,,0.0,207.62;
359,2024-01-25 04:30:00,207.09,207.13,207.2,207.012,442256.0,91361280.0,1706128200,,,,,,,,,,,-10.714716887662547,-8.35463996912479,0.5624285714285732,30.771517967987208,-77.72909734986762,0,0,98988.18599999999,,,207.09:238.0;,-126.14000000000027,207.63;
8,2024-01-25 22:39:00,187.806,188.45,188.45,187.35,1444754.0,270984192.0,1706193540,1.0,,,,,,,,1.0,,10.94816592568536,9.451828232588426,3.0457142857142827,37.15433533884339,-76.17956923878928,1,0,49595.207999999984,187.806:263.0;,187.806:263.0;,,0.0,187.806;
69,2024-01-25 23:40:00,186.005,186.46,186.46,186.005,547920.0,101139456.0,1706197200,,,,,,,,,,,13.896583993269672,-6.960298089482244,2.673499999999998,27.944048154459672,-73.86051817744043,0,0,98514.52299999999,,,186.005:263.0;,-473.6630000000042,
150,2024-01-26 01:01:00,184.284,184.167,184.359,184.167,494600.0,90732544.0,1706202060,,,,,,,1.0,,,,-2.303473724637257,-8.479505976966252,0.6245714285714244,15.37458149013132,-78.09378754011446,1,0,49126.410999999986,184.284:268.0;,184.284:268.0;,,0.0,184.284;
154,2024-01-26 01:05:00,183.979,183.89,183.979,183.835,390592.0,71442432.0,1706202300,,,,,1.0,,,,,,-7.776679623251034,-8.400094691141101,0.6215714285714264,15.37458149013132,-76.14074750775475,1,0,4.017999999981839,184.284:268.0;183.979:267.0;,183.979:267.0;,,0.0,184.284;183.979;
157,2024-01-26 01:08:00,183.34,183.22,183.34,183.22,410008.0,74815488.0,1706202480,,,,,,,,,,,-11.405675445568429,-8.400094691141101,0.6215714285714264,15.37458149013132,-75.15886788280193,0,0,49139.137999999984,183.979:267.0;,,183.34:268.0;,-252.9919999999969,183.98;
164,2024-01-26 01:15:00,183.01,183.05,183.05,182.755,724624.0,131739648.0,1706202900,,,,,,,,,,,-12.038194197856557,-8.283518302545755,0.6434285714285721,15.37458149013132,-73.88930368814432,0,0,98002.80799999999,,,183.01:267.0;,-258.723000000006,
184,2024-01-26 01:35:00,180.17,180.5,180.5,180.08,991008.0,178421760.0,1706204100,,,1.0,,,,,,,,-7.396679167873186,-7.863169306679827,0.7435000000000015,11.827452625018084,-77.32484947920112,1,0,48636.227999999996,180.17:274.0;,180.17:274.0;,,0.0,180.17;
228,2024-01-26 02:19:00,180.94,180.875,181.06,180.875,392704.0,70950912.0,1706206740,,,,,,,,,,,90.95204072242008,-0.7150259905514655,0.7204285714285723,9.411394951818146,28.96844272612524,0,0,98213.788,,,180.94:274.0;,210.9800000000028,
367,2024-02-01 04:38:00,188.696,188.17,188.696,188.084,335112.0,63020032.0,1706733480,,,,,,,,,1.0,,-13.101289305793143,4.606450437626705,1.1629999999999987,77.06759379709881,-76.12798887965178,1,0,98213.788,,,,0.0,
32,2024-02-01 23:03:00,187.405,187.2,187.405,187.12,397563.0,74469120.0,1706799780,1.0,,,,,,,,,,37.27220437913529,-2.444976339788923,1.219,48.99569483740476,-40.66146184753058,1,0,49113.678,187.405:262.0;,187.405:262.0;,,0.0,187.405;
66,2024-02-01 23:37:00,186.419,186.67,186.67,186.419,304572.0,56090112.0,1706801820,,,,,,,,,,,2.2793080648737245,-7.572619907494968,1.2543571428571474,45.40719299241857,-72.39720460700434,0,0,97955.456,,,186.419:262.0;,-258.3319999999974,
74,2024-02-01 23:45:00,185.95,185.66,185.95,185.651,389922.0,71648256.0,1706802300,,,,,,,,,1.0,,-6.585096021782373,-12.320193657909613,0.8924285714285735,45.40719299241857,-77.88149665190583,1,0,48864.65600000001,185.95:264.0;,185.95:264.0;,,0.0,185.95;
82,2024-02-01 23:53:00,185.25,185.135,185.34,185.135,211596.0,39114240.0,1706802780,,,,,,,1.0,,,,-5.891182832932259,-14.283202156299764,0.8322142857142885,45.40719299241857,-76.2490608203625,1,0,143.90600000000995,185.95:264.0;185.25:263.0;,185.25:263.0;,,0.0,185.95;185.25;
84,2024-02-01 23:55:00,184.83,184.579,184.83,184.579,441030.0,81382912.0,1706802900,,,,,,,,,,,-6.955163884398633,-15.929719771980515,0.8220000000000007,45.40719299241857,-77.96974534420053,0,0,48939.02600000001,185.25:263.0;,,184.83:264.0;,-295.6799999999937,185.25;
189,2024-02-02 01:40:00,186.291,186.14,186.291,186.14,169620.0,31561728.0,1706809200,,,,,,,,,,,65.32614463257522,21.450115111371133,0.5000714285714329,25.07819563925861,-9.135601939417564,0,0,97933.55900000001,,,186.291:263.0;,273.78299999999916,
75,2024-02-05 23:46:00,175.552,175.29,175.552,175.2,567204.0,98902528.0,1707147960,,,1.0,,,,,,,,-0.5136196056904776,-12.33537832481663,1.0995714285714269,23.117603547576508,-68.48550977574081,1,0,49130.10300000001,175.552:278.0;,175.552:278.0;,,0.0,175.552;
163,2024-02-06 01:14:00,179.775,179.48,179.775,179.48,307416.0,55361536.0,1707153240,,1.0,,,,,,,,,104.18732156684864,7.216259252223523,0.6292142857142835,16.460991234720517,45.406905017455706,0,1,74118.82800000001,175.552:139.0;,,179.775:139;,586.9970000000019,180.022;
191,2024-02-06 01:42:00,181.06,181.06,181.166,181.06,197432.0,35748864.0,1707154920,,,,,,,,,,1.0,95.81157935036796,26.18097957091745,0.6414999999999996,17.770152957168214,13.908322435556986,0,1,99286.168,,,181.06:139.0;,765.6120000000013,181.4;
92,2024-02-13 00:03:00,190.802,190.9,190.955,190.802,335364.0,63807488.0,1707753780,,,,,,,,,1.0,,-2.521235966359498,7.330064963190964,0.9507857142857148,81.48777515997287,-76.26647337470413,1,0,49677.64800000001,190.802:260.0;,190.802:260.0;,,0.0,190.802;
142,2024-02-13 00:53:00,190.72,190.89,190.89,190.7,337812.0,64029696.0,1707756780,,,,,,,,,,,61.80623776270762,-2.8578736171229906,0.680642857142865,78.12588449541602,-51.363918850911205,0,0,99264.848,,,190.72:260.0;,-21.319999999998345,
164,2024-02-13 01:15:00,189.26,189.53,189.57,189.26,317364.0,59977728.0,1707758100,,,,,1.0,,1.0,,,,-7.713015655576029,-11.260236527755753,0.5961428571428614,74.8864510033662,-72.82662004039548,1,0,49678.728,189.26:262.0;,189.26:262.0;,,0.0,189.26;
172,2024-02-13 01:23:00,188.58,188.44,188.61,188.44,350940.0,65695744.0,1707758580,,,,,,,,,,,-11.009857187487867,-12.834945451478632,0.5950714285714339,74.8864510033662,-74.13051868600158,0,0,99086.68800000001,,,188.58:262.0;,-178.15999999999434,
285,2024-02-14 03:16:00,182.556,182.75,182.75,182.556,297480.0,54285312.0,1707851760,,,,,,,,,1.0,,-19.281004640732554,6.684282846777009,0.3658571428571459,-9.10956636975041,-78.02326739471467,1,0,49614.012,182.556:271.0;,182.556:271.0;,,0.0,182.556;
316,2024-02-14 03:47:00,182.905,182.84,182.905,182.84,158968.0,29042688.0,1707853620,,,,,,,,,,,63.86842440677207,8.693291976478214,0.3508571428571412,-12.35465969169367,38.02889885899545,0,0,99181.26699999999,,,182.905:271.0;,94.57899999999717,
326,2024-02-14 03:57:00,182.34,182.461,182.533,182.34,312544.0,57003008.0,1707854220,,,,,,,1.0,,,,11.809900821076036,3.1832825083100573,0.3532857142857141,-12.35465969169367,-77.38391856501784,1,0,49767.12699999999,182.34:271.0;,182.34:271.0;,,0.0,182.34;
355,2024-02-14 04:26:00,182.372,182.24,182.4,182.24,177280.0,32294912.0,1707855960,,,,,,,,,,,15.074231322479,-0.2559829380923375,0.3491428571428555,-15.542876535161357,-64.95952786560089,0,0,99189.939,,,182.372:271.0;,8.672000000002896,
156,2024-02-21 01:07:00,190.43,190.25,190.43,190.25,240440.0,45788160.0,1708448820,,,,,1.0,,,,,,-11.169277188855006,-3.363453322202595,0.5710714285714248,44.77926988407626,-77.18783537829341,1,0,49678.138999999996,190.43:260.0;,190.43:260.0;,,0.0,190.43;
167,2024-02-21 01:18:00,189.62,189.95,189.95,189.62,242288.0,46023680.0,1708449480,,,,,,,,,,,-9.494469256699604,-6.187521370482692,0.5812857142857106,44.77926988407626,-76.9534524333307,0,0,98979.339,,,189.62:260.0;,-210.6000000000006,
184,2024-02-24 01:35:00,193.64,193.68,193.78,193.64,160608.0,31107072.0,1708709700,,,,,1.0,,,,,,0.6534095173514913,1.653544967307667,0.5010714285714296,60.8208070956761,-75.0319998142104,1,0,49601.13900000001,193.64:255.0;,193.64:255.0;,,0.0,193.64;
215,2024-02-24 02:06:00,193.186,193.16,193.31,193.16,138632.0,26788864.0,1708711560,,,,,,,,,,,0.8078531491259824,-4.952372096480275,0.4936428571428552,59.94315887256258,-74.04276982986345,0,0,98863.56900000002,,,193.186:255.0;,-115.76999999999472,
276,2024-02-24 03:07:00,192.73,192.709,192.755,192.575,189424.0,36480000.0,1708715220,,,,,,,1.0,,,,2.715899897380936,11.77726329272746,0.4912142857142823,58.11239970641,-75.99306535625442,1,0,49524.68900000002,192.73:256.0;,192.73:256.0;,,0.0,192.73;
295,2024-02-24 03:26:00,192.23,192.386,192.42,192.23,174776.0,33609728.0,1708716360,,,,,,,,,,,-5.040984638876978,4.244408234906111,0.4540714285714285,58.11239970641,-71.98344087247833,0,0,98735.56900000002,,,192.23:256.0;,-128.0,
8,2024-02-27 22:39:00,203.14,202.9,203.372,202.83,620017.0,125965056.0,1709044740,1.0,,,,,,,,,,81.5457582882901,16.403701581851166,0.96992857142857,91.02085273632744,9.666695962575972,1,0,49372.54900000002,203.14:243.0;,203.14:243.0;,,0.0,203.14;
12,2024-02-27 22:43:00,201.79,202.31,202.31,201.79,772645.0,156102400.0,1709044980,,,,,,,,,,,68.70303700759828,23.55497440070046,1.0191428571428551,91.02085273632744,-32.37848326995142,0,0,98407.51900000003,,,201.79:243.0;,-328.0499999999986,
3,2024-02-29 22:34:00,203.921,203.729,204.429,203.729,496569.0,101281152.0,1709217240,1.0,,,,,,,,,,82.87780816233214,3.2191275638282235,0.4839285714285677,85.95373091784793,63.029127355106304,1,0,49262.558000000034,203.921:241.0;,203.921:241.0;,,0.0,203.921;
16,2024-02-29 22:47:00,203.605,203.425,203.841,203.425,396463.0,80776704.0,1709218020,,,,,,,,,,,80.90109778095362,32.21969235173356,0.8876428571428586,85.95373091784793,30.305212422448705,0,0,98331.36300000004,,,203.605:241.0;,-76.1560000000006,
164,2024-03-05 01:15:00,189.102,189.21,189.354,189.102,296088.0,55903232.0,1709572500,,,1.0,,,,,,,,14.55540068593887,-21.10812543847851,0.6104999999999998,18.339468902617117,-73.65514608424772,1,0,49353.94500000004,189.102:259.0;,189.102:259.0;,,0.0,189.102;
184,2024-03-05 01:35:00,188.584,188.78,188.78,188.584,295464.0,55611392.0,1709573700,,,,,,,,,,,17.53588238667377,-18.979111650290346,0.6387142857142862,12.50209183067561,-47.20776880092943,0,0,98197.20100000004,,,188.584:259.0;,-134.16200000000018,
205,2024-03-05 01:56:00,187.162,187.05,187.18,187.05,355024.0,66313216.0,1709574960,,,,,1.0,,,,,,-4.050094080869254,-17.06561152659224,0.6419285714285691,12.50209183067561,-71.23038354738301,1,0,49160.75700000004,187.162:262.0;,187.162:262.0;,,0.0,187.162;
248,2024-03-05 02:39:00,187.173,186.984,187.27,186.984,500824.0,93257728.0,1709577540,,,,,,,,,,,38.26044016024929,-5.347897278454518,0.6349285714285681,3.3662215502146893,-49.27607800138622,0,0,98200.08300000004,,,187.173:262.0;,2.881999999998868,
103,2024-03-06 00:14:00,177.761,177.95,177.95,177.7,312640.0,55067648.0,1709655240,,,,,,,1.0,,,,11.854315367938645,-2.458770440058004,0.946785714285716,-13.723362030426657,-75.8893322407415,1,0,49138.04700000004,177.761:276.0;,177.761:276.0;,,0.0,177.761;
192,2024-03-06 01:43:00,180.57,180.73,180.73,180.57,174704.0,31547392.0,1709660580,,,,,,,,,,,78.99442501260029,15.779960393193392,0.5603571428571448,-15.274360612802766,-28.736215712093628,0,0,98975.36700000004,,,180.57:276.0;,775.2839999999993,
11,2024-03-12 21:42:00,173.567,173.415,173.638,173.27,502893.0,87215360.0,1710250920,1.0,,,,,,,,1.0,,8.667068409837952,9.140415178174903,1.0747857142857182,62.66458653144109,-77.77601386554483,1,0,49508.77200000004,173.567:285.0;,173.567:285.0;,,0.0,173.567;
25,2024-03-12 21:56:00,173.3,173.54,173.67,173.08,463158.0,80368128.0,1710251760,,,,,1.0,,,,,,2.895505484180987,1.2636606069245315,1.2447857142857155,62.66458653144109,-53.0329786862697,1,0,118.27200000004086,173.567:285.0;173.3:285.0;,173.3:285.0;,,0.0,173.649;173.3;
54,2024-03-12 22:25:00,175.134,175.365,175.365,175.045,285052.0,49553920.0,1710253500,,1.0,,,,,,,,,100.038346083571,5.312977673752769,1.4812142857142874,54.52346565747466,74.50694405104947,0,1,50206.596000000034,173.567:142.0;173.3:142.0;,,175.134:143;175.134:143;,486.34299999999337,175.134;175.134;
81,2024-03-12 22:52:00,176.04,176.183,176.185,176.0,223248.0,38983168.0,1710255120,,,,,,,,,,1.0,117.50595753376923,23.824372428488218,0.8845000000000047,50.74960031897236,74.43745037213802,0,1,100201.95600000003,,,176.04:142.0;176.04:142.0;,740.2459999999951,176.37;176.37;
42,2024-03-13 22:13:00,172.735,172.63,172.75,172.63,486674.0,83944448.0,1710339180,,,,,,,,,1.0,,0.726981866643321,6.970219470423217,1.2207857142857108,41.96715754605222,-75.23495015685614,1,0,50108.80600000003,172.735:290.0;,172.735:290.0;,,0.0,172.735;
66,2024-03-13 22:37:00,171.3,171.031,171.302,171.031,493568.0,83822080.0,1710340620,,,,,,,,,,,8.318479240479775,-11.20971450342074,1.3945000000000018,33.94587391717273,-76.10241141600721,0,0,99785.80600000004,,,171.3:290.0;,-416.15000000000066,
68,2024-03-13 22:39:00,171.145,171.18,171.355,171.13,429912.0,72971264.0,1710340740,,,,,,,1.0,,,,7.225910212023678,-11.20971450342074,1.3945000000000018,33.94587391717273,-76.04810278687088,1,0,49811.46600000004,171.145:292.0;,171.145:292.0;,,0.0,171.145;
90,2024-03-13 23:01:00,170.68,170.89,170.95,170.66,425924.0,72119808.0,1710342060,,,,,,,,,,,18.484132444704784,-20.159950698465195,0.8332142857142912,26.249034502118207,-36.12817596218931,0,0,99650.02600000004,,,170.68:292.0;,-135.780000000001,
122,2024-03-14 23:33:00,163.256,163.257,163.3,163.18,395904.0,64591872.0,1710430380,,,,,1.0,,,,,,-3.846392568529275,1.2578122987063622,0.5629285714285714,-15.454091918340168,-68.51821717822027,1,0,49856.94600000004,163.256:305.0;,163.256:305.0;,,0.0,163.256;
142,2024-03-14 23:53:00,163.005,163.359,163.359,163.005,324928.0,52986880.0,1710431580,,,,,,,,,,,20.361432934099675,1.5883025415794023,0.5358571428571415,-15.454091918340168,-53.04541689344467,0,0,99573.47100000005,,,163.005:305.0;,-76.55500000000146,
149,2024-03-15 00:00:00,162.959,162.8,162.99,162.79,235948.0,38402048.0,1710432000,,,1.0,,,,,,,,7.111854558325984,-0.1609078862711648,0.526142857142854,-16.786476741120488,-74.31099997062054,1,0,49870.976000000046,162.959:305.0;,162.959:305.0;,,0.0,162.959;
157,2024-03-15 00:08:00,162.4,162.209,162.425,162.209,374232.0,60713984.0,1710432480,,,,,,,,,,,4.445245868295711,-0.8477182963693366,0.5205714285714252,-16.786476741120488,-70.75215062050098,0,0,99402.97600000005,,,162.4:305.0;,-170.49499999999924,
211,2024-03-16 01:02:00,161.05,161.12,161.12,160.96,139744.0,22482944.0,1710522120,,,,,,,1.0,,,,9.958850251340206,12.644144075856415,0.3690714285714226,6.401696109390583,-60.3007079207234,1,0,49799.57600000005,161.05:308.0;,161.05:308.0;,,0.0,161.05;
276,2024-03-16 02:07:00,162.6,162.61,162.63,162.57,113736.0,18492416.0,1710526020,,,,,,,,,,,76.92713953629655,47.74325988045261,0.3780714285714249,7.719096735999354,-1.140636067438366,0,0,99880.37600000005,,,162.6:308.0;,477.39999999999475,
214,2024-03-22 01:05:00,173.159,173.44,173.44,173.159,219592.0,38013952.0,1711040700,,,,,,,1.0,,,,11.07210848494158,-14.017591821657504,0.4025714285714262,76.90431136836997,-68.53695838886323,1,0,50010.584000000046,173.159:288.0;,173.159:288.0;,,0.0,173.159;
238,2024-03-22 01:29:00,173.23,173.325,173.357,173.23,83452.0,14460928.0,1711042140,,,,,,,,,,,37.75644867551851,-10.772998367071622,0.3610714285714331,76.90431136836997,-52.45235701896637,0,0,99900.82400000005,,,173.23:288.0;,20.44799999999941,
365,2024-03-27 03:36:00,178.145,178.192,178.192,178.125,198752.0,35397632.0,1711481760,,,,,,,1.0,,,,-6.591293528311866,-19.70797050937479,0.3876428571428586,93.60103392490572,-76.70419472861443,1,0,99900.82400000005,,,,0.0,
5,2024-03-27 21:36:00,178.81,178.666,179.07,178.666,582309.0,104214720.0,1711546560,1.0,,,,,,,,,,29.061951271933005,-12.299901097958298,0.7109285714285696,83.03646918742025,81.10305753135327,1,0,50012.83400000005,178.81:279.0;,178.81:279.0;,,0.0,178.81;
11,2024-03-27 21:42:00,177.65,177.675,177.825,177.65,427873.0,76045056.0,1711546920,,,,,,,,,,,19.38537517559152,-11.245173207861,0.7846428571428541,83.03646918742025,-41.45716266222817,0,0,99577.18400000005,,,177.65:279.0;,-323.6399999999991,
17,2024-03-27 21:48:00,176.85,177.416,177.416,176.85,444880.0,78824704.0,1711547280,,,,,,,1.0,,1.0,,8.804818597680068,-11.7710687004759,0.8432142857142821,83.03646918742025,-75.03341944858849,1,0,49705.484000000055,176.85:282.0;,176.85:282.0;,,0.0,176.85;
19,2024-03-27 21:50:00,177.658,177.94,177.95,177.658,490419.0,87233536.0,1711547400,,,,,1.0,,,,,,12.09337457767996,-8.057456205369505,0.9167857142857108,83.03646918742025,-55.23888449224034,1,0,138.90200000006007,176.85:282.0;177.658:279.0;,177.658:279.0;,,0.0,177.658;177.658;
29,2024-03-27 22:00:00,176.465,176.24,176.465,176.24,676294.0,119358976.0,1711548000,,,,,,,,,,,7.148478736435301,-8.908570029656154,1.0543571428571406,80.09810247669827,-66.51288240430205,0,0,99135.76700000005,,,176.465:282.0;176.465:279.0;,-441.41699999999287,
5,2024-04-01 21:36:00,175.868,175.95,175.95,175.67,493668.0,86796800.0,1711978560,1.0,,,,,,,,,,41.5028354311328,5.909271001408229,0.5699999999999932,32.760319650051514,38.32877983782648,1,0,49716.859000000055,175.868:281.0;,175.868:281.0;,,0.0,175.868;
15,2024-04-01 21:46:00,174.98,174.92,175.19,174.92,281636.0,49293824.0,1711979160,,,,,,,,,,,35.39413183556312,7.726985152042751,0.6639285714285664,32.760319650051514,27.08575328140929,0,0,98886.23900000006,,,174.98:281.0;,-249.52800000000147,
44,2024-04-01 22:15:00,173.47,173.242,173.47,173.242,302616.0,52527360.0,1711980900,,,,,,,,,1.0,,1.388134901246815,6.642591369463958,0.986857142857139,28.849296309096104,-76.61574932060424,1,0,49447.28900000006,173.47:285.0;,173.47:285.0;,,0.0,173.47;
52,2024-04-01 22:23:00,172.548,172.778,172.778,172.548,323506.0,55860736.0,1711981380,,,,,,,1.0,,,,-5.095448567824903,4.064961750115216,1.0252857142857092,28.849296309096104,-77.46183636368661,1,0,98.56100000005972,173.47:285.0;172.548:286.0;,172.548:286.0;,,0.0,173.47;172.548;
58,2024-04-01 22:29:00,171.72,171.806,171.806,171.7,488260.0,83909632.0,1711981740,,,,,,,,,,,-7.431213553113196,1.899506816607385,1.038499999999995,28.849296309096104,-78.03356444572282,0,0,49038.76100000006,172.548:286.0;,,171.72:285.0;,-498.75,172.767;
63,2024-04-01 22:34:00,171.295,171.255,171.295,171.207,372302.0,63604736.0,1711982040,,,,,,,,,,,-8.238922160045426,-0.184131393121639,1.0799285714285674,19.810149080810703,-78.12081512856909,0,0,98029.13100000005,,,171.295:286.0;,-358.3580000000041,
336,2024-04-05 03:07:00,171.73,171.486,171.73,171.486,273520.0,46772224.0,1712257620,,,,,,,,,1.0,,3.2049633015361216,15.16177566286322,0.6447142857142845,91.07057697940384,-62.47442468794874,1,0,49086.08100000006,171.73:285.0;,171.73:285.0;,,0.0,171.73;
359,2024-04-05 03:30:00,171.094,170.855,171.1,170.81,360048.0,61417472.0,1712259000,,,,,,,,,,,5.283868929416386,-13.447478047966484,0.6632857142857144,89.59911513429726,-72.65482238379533,0,0,97847.87100000006,,,171.094:285.0;,-181.25999999999877,171.73;
11,2024-04-05 21:42:00,167.815,167.837,167.837,167.51,514894.0,86326912.0,1712324520,1.0,,,,,,,,,,11.454457479392246,-25.207438910634565,0.9857142857142926,83.8739558235643,-75.56189669767804,1,0,49013.70600000006,167.815:291.0;,167.815:291.0;,,0.0,167.815;
26,2024-04-05 21:57:00,169.67,169.6,169.67,169.5,182956.0,31049984.0,1712325420,,1.0,,,,,,,,,35.214194225481414,-21.59507176466346,1.1137857142857155,83.8739558235643,82.12293906640453,0,1,73785.52600000006,167.815:145.0;,,169.67:146;,270.8299999999985,169.755;
45,2024-04-05 22:16:00,170.35,170.24,170.45,170.24,201724.0,34403840.0,1712326560,,,,,,,,,,1.0,65.15644633674596,-10.719845626737438,1.253785714285716,80.8197080926714,73.8526478714414,0,1,98486.27600000006,,,170.35:145.0;,367.5749999999995,170.66;
99,2024-04-05 23:10:00,166.814,166.4,166.814,166.4,729296.0,121308160.0,1712329800,,,,,1.0,,,,1.0,,26.320787406443216,10.768029781029853,1.0822142857142905,75.6645584385504,-71.8184242568003,1,0,49609.774000000056,166.814:293.0;,166.814:293.0;,,0.0,166.814;
102,2024-04-05 23:13:00,165.035,163.91,165.035,163.91,1640468.0,269071360.0,1712329980,,,,,,,,,,,8.577933821789273,10.768029781029853,1.0822142857142905,75.6645584385504,-76.44594001792304,0,0,97965.02900000005,,,165.035:293.0;,-521.2469999999989,
105,2024-04-05 23:16:00,163.42,162.85,163.54,162.85,1048832.0,170740224.0,1712330160,,,,,,,1.0,,,,-2.2325251352740736,8.105037072985496,1.3065000000000058,75.6645584385504,-77.08803766218449,1,0,49102.44900000006,163.42:299.0;,163.42:299.0;,,0.0,163.42;
107,2024-04-05 23:18:00,163.32,163.02,164.18,163.02,1064100.0,173620736.0,1712330280,,,1.0,,,,,,,,-7.512435374120983,8.105037072985496,1.3065000000000058,75.6645584385504,-77.60715647958787,1,0,269.76900000005844,163.42:299.0;163.32:299.0;,163.32:299.0;,,0.0,163.42;163.32;
113,2024-04-05 23:24:00,162.97,163.105,163.395,162.905,780456.0,127039488.0,1712330640,,,,,,,,,,,-8.914316554686351,6.241170455618331,1.327214285714293,75.6645584385504,-74.05493090314468,0,0,97725.82900000006,,,162.97:299.0;162.97:299.0;,-239.1999999999949,
74,2024-04-12 22:45:00,171.76,171.778,171.79,171.7,108220.0,18753536.0,1712933100,1.0,,,,,,,,,,4.67897780445854,-5.677223331959709,0.7852142857142853,42.07787701334601,-73.31430416094666,1,0,48945.98900000006,171.76:284.0;,171.76:284.0;,,0.0,171.76;
151,2024-04-13 00:02:00,172.213,172.19,172.26,172.185,194842.0,33541120.0,1712937720,,,,,,,,,,,53.33453409369801,-0.6638538242092977,0.38192857142857,35.616836038052625,8.00364302067683,0,0,97854.48100000006,,,172.213:284.0;,128.65200000000084,
201,2024-04-13 00:52:00,170.854,170.94,171.009,170.852,144460.0,24653824.0,1712940720,,,,,1.0,,,,,,-4.131100079940449,-13.657918000610806,0.3293571428571401,32.8897426601242,-73.75246059496068,1,0,49161.09100000005,170.854:285.0;,170.854:285.0;,,0.0,170.854;
230,2024-04-13 01:21:00,171.16,171.05,171.17,171.05,152384.0,26033152.0,1712942460,,,,,,,,,,,91.96351278542912,-4.333741796306519,0.3491428571428555,29.797027740919876,58.89051028651507,0,0,97941.69100000005,,,171.16:285.0;,87.2099999999952,
27,2024-04-15 21:58:00,165.33,165.51,165.51,165.33,319738.0,52951040.0,1713189480,,,,,1.0,,,,,,-16.391281620830664,12.608290073253208,0.96442857142857,25.217902856536767,-77.36403468218222,1,0,49004.01100000005,165.33:296.0;,165.33:296.0;,,0.0,165.33;
86,2024-04-15 22:57:00,165.32,165.47,165.47,165.32,176756.0,28910592.0,1713193020,,,,,,,,,,,64.90695645083579,3.169683134594344,0.7038571428571417,16.039630522902513,63.56129639150589,0,0,97938.73100000006,,,165.32:296.0;,-2.9600000000057207,
190,2024-04-16 00:41:00,164.45,164.46,164.52,164.45,204592.0,33559552.0,1713199260,,,,,1.0,,,,,,-18.562875807899395,7.283704177864259,0.444357142857139,4.711619043835299,-77.27133027720198,1,0,49097.081000000064,164.45:297.0;,164.45:297.0;,,0.0,164.45;
229,2024-04-16 01:20:00,164.04,164.04,164.055,163.921,295596.0,48400384.0,1713201600,,,,,,,,,,,56.12578571637376,-0.1932105869734144,0.4159285714285699,1.5395687297259857,-37.65667241964943,0,0,97816.96100000007,,,164.04:297.0;,-121.76999999999899,
9,2024-04-16 21:40:00,154.18,154.46,154.46,154.06,958813.0,147909632.0,1713274800,1.0,,,,,,,,1.0,,-3.1470392331607684,7.797616245159453,1.21914285714286,-3.4658293389289128,-77.04389152642774,1,0,48941.90100000006,154.18:317.0;,154.18:317.0;,,0.0,154.18;
47,2024-04-16 22:18:00,156.77,156.589,156.96,156.57,412380.0,64654848.0,1713277080,,,,,,,,,,1.0,51.70817667074333,12.79545065206334,1.527857142857146,-4.029916022604063,76.51502971363377,0,1,98637.99100000007,,,156.77:317.0;,821.0300000000011,157.09;
320,2024-04-20 02:51:00,147.027,146.923,147.065,146.885,155448.0,22732800.0,1713552660,,,,,1.0,,1.0,,,,-0.8083171881541276,-7.000507284629606,0.3687142857142902,23.2669228066118,-64.6580199791077,1,0,49383.94600000007,147.027:335.0;,147.027:335.0;,,0.0,147.027;
366,2024-04-20 03:37:00,146.665,146.599,146.665,146.56,273344.0,39914496.0,1713555420,,,,,,,,,,,48.50274847032679,-10.249664997957808,0.3769285714285745,21.369705853358525,-54.320417360172165,0,0,98516.72100000006,,,146.665:335.0;,-121.26999999999825,
5,2024-04-22 21:36:00,139.34,140.24,140.24,139.075,1161448.0,162043136.0,1713792960,1.0,,,,,,,,,,24.26943377267604,-8.745864203804473,0.9388571428571452,21.359918897880767,-71.3903637546016,1,0,49329.70100000006,139.34:353.0;,139.34:353.0;,,0.0,139.34;
10,2024-04-22 21:41:00,141.052,141.26,141.49,141.04,675724.0,95589120.0,1713793260,,1.0,,,,,,,,,23.899115972890684,-5.947176888471411,1.114214285714287,21.359918897880767,26.14460340764433,0,1,74295.90500000006,139.34:176.0;,,141.052:177;,303.02399999999807,141.39;
13,2024-04-22 21:44:00,141.82,142.15,142.26,141.675,461156.0,65609984.0,1713793440,,,,,,,,,,1.0,29.051234442380355,-5.947176888471411,1.114214285714287,21.359918897880767,61.75877014019243,0,1,99256.22500000006,,,141.82:176.0;,436.4799999999982,141.89;
86,2024-04-22 22:57:00,140.31,140.451,140.455,140.31,236804.0,32906752.0,1713797820,,,,,,,,,1.0,,-8.894242989649264,17.2240505549968,0.7935714285714275,21.0586362741166,-65.02951434004868,1,0,50007.415000000066,140.31:351.0;,140.31:351.0;,,0.0,140.31;
110,2024-04-22 23:21:00,139.775,139.88,139.915,139.775,217276.0,30108160.0,1713799260,,,,,,,,,,,8.387548946224687,10.080031024469475,0.5702142857142819,19.108866494942376,-76.59165837998185,0,0,99068.44000000006,,,139.775:351.0;,-187.7849999999988,
6,2024-04-24 21:37:00,161.12,159.8,161.12,159.745,1432398.0,229675520.0,1713965820,1.0,,,,,,,,1.0,,80.42180953245801,-0.0769351510139415,3.1790714285714268,51.21790174368749,83.045038554366,1,0,49604.60000000006,161.12:307.0;,161.12:307.0;,,0.0,161.12;
23,2024-04-24 21:54:00,162.87,162.32,162.87,162.32,638352.0,103868416.0,1713966840,,1.0,,,,,,,,,111.97372986023164,32.47030837742801,3.5366428571428554,51.21790174368749,69.13072417377397,0,1,74686.58000000006,161.12:153.0;,,162.87:154;,269.5,163.17;
39,2024-04-24 22:10:00,167.04,166.381,167.04,166.381,1007276.0,167591936.0,1713967800,,,,,,,,1.0,,1.0,116.72461483607566,68.89427368036105,4.031428571428569,61.60969593140713,48.97113758433442,0,1,100243.70000000006,,,167.04:153.0;,905.7599999999981,167.743;
306,2024-04-27 02:37:00,167.76,167.63,167.804,167.63,240312.0,40226816.0,1714156620,,,,,,,,,1.0,,2.927166607075101,8.276822436469587,0.4555714285714337,97.5905980276298,-71.71484748402743,1,0,50251.22000000006,167.76:298.0;,167.76:298.0;,,0.0,167.76;
311,2024-04-27 02:42:00,167.125,167.08,167.14,166.821,982360.0,163759104.0,1714156920,,,,,,,,,,,2.6926254287850355,2.6443505476326976,0.445285714285719,97.5905980276298,-75.08359659605179,0,0,100054.47000000006,,,167.125:298.0;,-189.2299999999973,
320,2024-04-27 02:51:00,166.749,166.866,166.88,166.749,246720.0,41065472.0,1714157460,,,,,,,1.0,,,,7.648296488734307,-4.87651429085868,0.5104285714285746,97.5905980276298,-20.630806371765317,1,0,50029.77000000006,166.749:300.0;,166.749:300.0;,,0.0,166.749;
344,2024-04-27 03:15:00,167.245,167.25,167.339,167.17,286896.0,47924224.0,1714158900,,,,,,,,,,,71.83020021094002,-7.284632475623027,0.5903571428571439,95.2973279900531,76.25716157275272,0,0,100203.27000000006,,,167.245:300.0;,148.8000000000028,
44,2024-04-30 22:15:00,187.23,187.15,187.23,187.07,239272.0,44757504.0,1714486500,1.0,,,,,,,,,,-2.1802508229639272,-1.249170609733227,2.115999999999997,86.07967629622777,-74.3619123363595,1,0,50212.860000000066,187.23:267.0;,187.23:267.0;,,0.0,187.23;
62,2024-04-30 22:33:00,186.49,186.415,186.54,186.415,262088.0,48427520.0,1714487580,,,,,,,,,1.0,,-3.4604445471288727,-9.068453513278923,2.101785714285711,82.55279780581347,-75.907125532946,1,0,233.54000000006636,187.23:267.0;186.49:268.0;,186.49:268.0;,,0.0,187.686;186.49;
83,2024-04-30 22:54:00,186.048,186.325,186.33,186.048,692240.0,128372224.0,1714488840,,,,,,,,,,,44.15504389756632,-9.064421041115937,1.1383571428571355,82.55279780581347,49.60367881408669,0,0,99769.22000000006,,,186.048:267.0;186.048:268.0;,-434.0499999999987,
100,2024-04-30 23:11:00,184.85,184.657,184.935,184.657,353712.0,64921600.0,1714489860,,,,,,,1.0,,,,1.0906135204902083,-15.114600704778155,1.0297142857142794,79.05548392337619,-73.2968165681443,1,0,49674.87000000006,184.85:271.0;,184.85:271.0;,,0.0,184.85;
119,2024-04-30 23:30:00,183.91,184.235,184.235,183.91,364916.0,67117056.0,1714491000,,,,,,,,,,,9.213318344167156,-15.294437262663614,0.906642857142854,75.32402420596111,-29.182171071472403,0,0,99514.48000000007,,,183.91:271.0;,-254.73999999999938,
307,2024-05-10 02:38:00,172.252,172.335,172.335,172.252,153476.0,26456064.0,1715279880,,,,,,,1.0,,,,15.200394323456663,8.460617348576719,0.2560714285714311,12.573984500693967,-65.36679761553985,1,0,49905.90400000007,172.252:288.0;,172.252:288.0;,,0.0,172.252;
311,2024-05-10 02:42:00,171.959,171.983,172.032,171.959,130248.0,22419456.0,1715280120,,,,,,,,,,,17.16607821963086,9.435626074537566,0.2560000000000023,12.573984500693967,-24.61532260479308,0,0,99430.09600000008,,,171.959:288.0;,-84.38400000000183,
7,2024-05-10 21:38:00,171.25,171.12,171.25,170.934,405579.0,69392704.0,1715348280,1.0,,,,,,,,,,28.385227064727744,6.308041783077925,0.5478571428571399,11.486226139052825,-75.04870943216308,1,0,49767.59600000008,171.25:290.0;,171.25:290.0;,,0.0,171.25;
14,2024-05-10 21:45:00,170.274,170.18,170.31,170.18,501219.0,85329920.0,1715348700,,,,,,,,,,,3.590620487336821,2.111298169391304,0.645071428571427,11.486226139052825,-75.07042820560928,0,0,99147.05600000007,,,170.274:290.0;,-283.03999999999974,
61,2024-05-10 22:32:00,169.218,168.971,169.218,168.971,557656.0,94539264.0,1715351520,,,,,,,1.0,,1.0,,-0.8323113528765873,16.692718284318318,0.99857142857143,7.973048365248871,-77.86357785079826,1,0,49566.18200000007,169.218:293.0;,169.218:293.0;,,0.0,169.218;
84,2024-05-10 22:55:00,168.282,168.12,168.282,168.12,443512.0,74293760.0,1715352900,,,,,,,,,,,-7.175206657525891,6.144264679286792,0.738428571428571,7.973048365248871,-77.66276990963803,0,0,98872.80800000008,,,168.282:293.0;,-274.24799999999374,
89,2024-05-10 23:00:00,168.18,168.21,168.21,168.06,303064.0,50447872.0,1715353200,,,,,1.0,,,,,,-4.227986011091176,4.869790029874672,0.7082857142857161,5.634555692878656,-73.45126219152014,1,0,49259.70800000008,168.18:295.0;,168.18:295.0;,,0.0,168.18;
128,2024-05-10 23:39:00,168.46,168.611,168.611,168.46,126712.0,21336064.0,1715355540,,,,,,,,,,,91.5730259956554,8.085493693720831,0.5209285714285719,4.603716916387981,62.03965322766922,0,0,98955.40800000008,,,168.46:295.0;,82.60000000000034,
6,2024-05-16 21:37:00,172.661,172.89,172.89,172.645,472290.0,81586112.0,1715866620,1.0,,,,,,,,,,11.07288169370898,14.138936403677974,0.517071428571433,41.25243202506289,-68.7983003779135,1,0,49574.36200000008,172.661:286.0;,172.661:286.0;,,0.0,172.661;
10,2024-05-16 21:41:00,171.77,172.12,172.22,171.535,570952.0,98077312.0,1715866860,,,,,,,,,,,9.058759689550556,10.085336532215235,0.5937857142857175,41.25243202506289,-61.08564593387181,0,0,98700.58200000008,,,171.77:286.0;,-254.82599999999746,
11,2024-05-20 21:42:00,174.84,174.59,174.84,174.57,504617.0,88115456.0,1716212520,1.0,,,,,,,,,,-16.81627740822543,2.660807116347541,0.599499999999998,55.71956677616501,-78.46915153293017,1,0,49395.702000000085,174.84:282.0;,174.84:282.0;,,0.0,174.84;
26,2024-05-20 21:57:00,174.38,174.35,174.397,174.2,486546.0,84805888.0,1716213420,,,,,,,,,,,-18.263772692429452,-4.094145174646059,0.7447142857142869,55.71956677616501,-77.20476031454812,0,0,98570.86200000008,,,174.38:282.0;,-129.72000000000224,
201,2024-05-23 00:52:00,179.807,179.81,179.83,179.76,147636.0,26591232.0,1716396720,,,,,1.0,,,,,,-0.1293317330425196,-19.649985946464646,0.4003571428571401,88.4310237067761,-76.6864177993881,1,0,49303.744000000086,179.807:274.0;,179.807:274.0;,,0.0,179.807;
205,2024-05-23 00:56:00,179.665,179.754,179.83,179.649,180976.0,32585728.0,1716396960,,,,,,,,,1.0,,-9.969666886167232,-19.595621279737664,0.3932142857142833,88.4310237067761,-76.81021696389828,1,0,75.53400000008696,179.807:274.0;179.665:274.0;,179.665:274.0;,,0.0,179.807;179.665;
240,2024-05-23 01:31:00,179.69,179.775,179.84,179.69,161108.0,28988416.0,1716399060,,,,,,,,,,,30.000650282879263,-12.339343966172253,0.3423571428571392,79.08880176326662,-58.22497178649744,0,0,98545.65400000008,,,179.69:274.0;179.69:274.0;,-25.207999999995764,
249,2024-05-23 01:40:00,179.37,179.26,179.37,179.22,128676.0,23147520.0,1716399600,,,,,,,1.0,,,,18.237948271531,-11.230157292690954,0.365714285714282,79.08880176326662,-73.69535628727476,1,0,49398.27400000008,179.37:274.0;,179.37:274.0;,,0.0,179.37;
260,2024-05-23 01:51:00,178.93,179.235,179.235,178.93,218444.0,39073792.0,1716400260,,,,,,,,,,,4.190835594585259,-11.889684593086956,0.3804999999999999,79.08880176326662,-75.45262084602189,0,0,98425.09400000007,,,178.93:274.0;,-120.55999999999938,
123,2024-05-31 23:34:00,175.2,175.243,175.34,175.2,152146.0,26268672.0,1717169640,,,,,,,1.0,,,,13.882016638638788,-9.912832094737666,0.6650714285714291,59.09572840000516,-70.11238500648538,1,0,49369.09400000007,175.2:280.0;,175.2:280.0;,,0.0,175.2;
153,2024-06-01 00:04:00,174.755,174.935,174.98,174.755,159262.0,27799040.0,1717171440,,,,,,,,,,,27.527001673080136,-18.226142150007703,0.5098571428571412,52.59754678582972,70.5972420762956,0,0,98300.49400000006,,,174.755:280.0;,-124.59999999999809,
6,2024-06-05 21:37:00,172.88,172.465,172.96,172.465,749849.0,129584256.0,1717594620,1.0,,,,,,,,,,-3.2579971184820486,17.34209570545849,0.6614285714285708,19.816579172950064,-76.653686176722,1,0,49202.574000000066,172.88:284.0;,172.88:284.0;,,0.0,172.88;
21,2024-06-05 21:52:00,172.36,173.21,173.22,172.36,483634.0,83620608.0,1717595520,,,,,,,,,,,12.916930620428523,5.192519665968348,0.6844999999999979,19.816579172950064,-5.733901278593198,0,0,98152.81400000007,,,172.36:284.0;,-147.67999999999483,
13,2024-06-06 21:44:00,174.79,174.87,174.89,174.74,226074.0,39517056.0,1717681440,1.0,,,,,,,,,,52.22594126932208,18.15115630737968,0.5991428571428555,30.107945085365422,-62.46437113403082,1,0,49211.614000000074,174.79:280.0;,174.79:280.0;,,0.0,174.79;
20,2024-06-06 21:51:00,173.85,173.19,173.85,173.19,437580.0,75934848.0,1717681860,,,,,,,,,,,17.360888150263207,11.385850064029682,0.68592857142857,30.107945085365422,-73.53610430164103,0,0,97889.61400000007,,,173.85:280.0;,-263.19999999999936,
22,2024-06-06 21:53:00,173.275,173.32,173.32,173.25,307679.0,53301760.0,1717681980,,,,,,,,,1.0,,7.153888106633062,11.385850064029682,0.68592857142857,30.107945085365422,-77.05626434321039,1,0,48852.78900000007,173.275:283.0;,173.275:283.0;,,0.0,173.275;
168,2024-06-07 00:19:00,175.06,175.27,175.27,175.021,153142.0,26772992.0,1717690740,,,,,,,,,,,79.67660143240357,59.19015062460375,0.3517857142857151,25.645032470112547,-17.070058072715923,0,0,98394.76900000007,,,175.06:283.0;,505.15499999999906,
278,2024-06-08 02:09:00,176.292,176.13,176.292,176.13,153648.0,27021312.0,1717783740,,,,,,,,,1.0,,-9.682566079560956,-3.037324296265311,0.3608571428571423,93.23788448003631,-75.93810016190304,1,0,49209.30100000007,176.292:279.0;,176.292:279.0;,,0.0,176.292;
287,2024-06-08 02:18:00,175.7,175.59,175.7,175.59,194200.0,34063872.0,1717784280,,,,,,,,,,,-11.63741491880672,-11.191371249857411,0.3739999999999973,93.23788448003631,-74.14787148806953,0,0,98229.60100000007,,,175.7:279.0;,-165.16800000000362,
253,2024-06-11 01:44:00,174.47,174.54,174.54,174.47,62304.0,10835968.0,1718041440,,,,,,,,,1.0,,21.712370136446225,-2.6080559384241724,0.3682142857142878,55.7205094188882,-72.29940275854165,1,0,49203.53100000007,174.47:281.0;,174.47:281.0;,,0.0,174.47;
271,2024-06-11 02:02:00,174.101,174.152,174.152,174.1,105412.0,18322432.0,1718042520,,,,,,,,,,,1.87893690234462,-3.734769585479469,0.3401428571428572,49.05891047787063,-75.57118933882224,0,0,98125.91200000007,,,174.101:281.0;,-103.68899999999994,
274,2024-06-11 02:05:00,173.917,173.951,173.951,173.84,101244.0,17597952.0,1718042700,,,,,,,1.0,,,,-0.5010666725786521,-4.165393985091576,0.3490714285714266,49.05891047787063,-75.26948432114311,1,0,49081.31800000007,173.917:282.0;,173.917:282.0;,,0.0,173.917;
302,2024-06-11 02:33:00,173.41,173.222,173.41,173.222,138844.0,24033280.0,1718044380,,,,,,,,,,,17.48429298573553,-2.7265591347495786,0.2909285714285679,41.633588389755616,-59.43326739598034,0,0,97982.93800000008,,,173.41:282.0;,-142.9740000000014,
27,2024-06-11 21:58:00,168.265,167.99,168.265,167.945,335239.0,56442368.0,1718114280,,,,,,,1.0,,,,-13.84801371432352,15.512272668774555,0.8370714285714322,11.320032512481616,-78.66131409586312,1,0,49017.823000000084,168.265:291.0;,168.265:291.0;,,0.0,168.265;
31,2024-06-11 22:02:00,168.22,168.11,168.22,168.01,306053.0,51570688.0,1718114520,,,,,1.0,,,,,,-10.24575577961365,12.426730229536377,0.860357142857148,4.371095586808622,-75.13253429139392,1,0,65.8030000000872,168.265:291.0;168.22:291.0;,168.22:291.0;,,0.0,168.265;168.22;
84,2024-06-11 22:55:00,169.035,168.95,169.295,168.95,314754.0,52732928.0,1718117700,,,,,,,,,,,70.62466253247963,22.145531450371465,0.7175000000000031,1.1695954320794897,13.61637650653957,0,0,98444.17300000008,,,169.035:291.0;169.035:291.0;,461.2350000000023,
6,2024-06-14 21:37:00,183.52,183.22,183.83,183.22,564380.0,103592576.0,1718372220,1.0,,,,,,,,1.0,,42.3992082547512,6.553690862287766,1.081000000000003,60.530120720429295,76.43392121814455,1,0,49260.81300000008,183.52:268.0;,183.52:268.0;,,0.0,183.52;
12,2024-06-14 21:43:00,181.945,182.209,182.209,181.945,614873.0,111909632.0,1718372580,,,,,,,,,,,36.11371266568169,9.432716752174926,1.1417142857142883,60.530120720429295,29.60811426553178,0,0,98022.07300000008,,,181.945:268.0;,-422.10000000000457,
38,2024-06-14 22:09:00,179.8,179.5,179.8,179.5,376068.0,67607296.0,1718374140,,,,,,,1.0,,,,0.2402537137373528,8.090284651864408,1.439857142857144,58.93687808941198,-77.30159211973292,1,0,48936.673000000075,179.8:273.0;,179.8:273.0;,,0.0,179.8;
107,2024-06-14 23:18:00,178.659,178.96,179.095,178.659,217768.0,38717440.0,1718378280,,,,,,,,,,,43.44482166013008,-3.8849749696703526,0.7569999999999989,50.92514148000464,40.372315522966616,0,0,97710.58000000007,,,178.659:273.0;,-311.49300000000534,
77,2024-06-18 22:48:00,182.715,182.73,182.75,182.69,237830.0,43012096.0,1718722080,,,,,,,1.0,,1.0,,0.1824567609153469,-19.500751189730835,0.837214285714286,73.31716272030671,-77.34170628238256,1,0,48925.675000000076,182.715:267.0;,182.715:267.0;,,0.0,182.715;
119,2024-06-18 23:30:00,183.24,183.285,183.285,183.129,218572.0,39737856.0,1718724600,,,,,,,,,,,100.16604062262688,-15.64346360355242,0.5812142857142878,65.90103729709085,59.00978739061555,0,0,97850.75500000008,,,183.24:267.0;,140.17500000000152,
191,2024-06-29 00:42:00,195.65,196.024,196.024,195.559,249856.0,48890880.0,1719592920,,,,,1.0,,,,,,1.756560469554831,8.019907498080187,0.8858571428571419,84.1862622224522,-74.18945728855086,1,0,48938.25500000008,195.65:250.0;,195.65:250.0;,,0.0,195.65;
267,2024-06-29 01:58:00,196.58,196.675,196.675,196.58,71384.0,14009344.0,1719597480,,,,,,,,,,,75.07882122118639,-9.316364197472836,0.4297142857142851,76.06310094690872,60.625992832144746,0,0,98083.25500000008,,,196.58:250.0;,232.5000000000017,
62,2024-07-10 22:33:00,259.03,258.99,259.035,258.841,492760.0,127559680.0,1720621980,,,,,,,1.0,,,,4.4699489602731575,7.984596700924698,1.941142857142856,83.66878175288002,-71.41755898679405,1,0,49126.58500000008,259.03:189.0;,259.03:189.0;,,0.0,259.03;
111,2024-07-10 23:22:00,261.06,262.03,262.03,261.06,387208.0,100905984.0,1720624920,,,,,,,,,,,85.73086161436686,28.31845209704636,1.4227142857142865,82.55128933147941,47.042239959200046,0,0,98466.92500000008,,,261.06:189.0;,383.6700000000056,
354,2024-07-16 03:25:00,256.71,256.645,256.71,256.286,184464.0,47384576.0,1721071500,,,,,,,1.0,,,,10.38917525500981,-14.895291778573435,0.8592142857142895,89.83350115077387,-66.40224925018535,1,0,49435.31500000008,256.71:191.0;,256.71:191.0;,,0.0,256.71;
359,2024-07-16 03:30:00,256.125,255.65,256.125,255.46,363176.0,92516352.0,1721071800,,,,,,,,,,,6.0867280994621495,-16.390553346938773,0.9067142857142848,88.77217793041274,-64.07567919561656,0,0,98355.19000000009,,,256.125:191.0;,-111.73499999999609,256.71;
5,2024-07-16 21:36:00,255.17,254.832,255.17,254.81,484054.0,123514368.0,1721136960,1.0,,,,,,,,,,50.65126046983736,-12.809445733956416,1.5147857142857095,75.04886416899025,84.28777452035361,1,0,49362.55000000009,255.17:192.0;,255.17:192.0;,,0.0,255.17;
10,2024-07-16 21:41:00,253.24,252.75,253.273,252.75,919101.0,232730624.0,1721137260,,,,,,,,,,,45.5454212819903,-11.15741870777034,1.5844285714285664,75.04886416899025,71.39894703879894,0,0,97984.63000000009,,,253.24:192.0;,-370.55999999999585,
13,2024-07-16 21:44:00,253.89,253.46,253.89,253.36,563399.0,142910464.0,1721137440,,,,,1.0,,,,1.0,,38.52237848924469,-11.15741870777034,1.5844285714285664,75.04886416899025,5.081156986387841,1,0,48983.860000000095,253.89:193.0;,253.89:193.0;,,0.0,253.89;
20,2024-07-16 21:51:00,251.07,250.59,251.07,250.544,844200.0,211494912.0,1721137860,,,,,,,,,,,21.189856217866364,-10.912416633822788,1.8029999999999973,75.04886416899025,-67.7978427726587,0,0,97440.3700000001,,,251.07:193.0;,-544.2599999999986,
22,2024-07-16 21:53:00,250.955,250.6,250.955,250.6,520990.0,130345472.0,1721137980,,,,,,,1.0,,,,13.673496974911814,-10.912416633822788,1.8029999999999973,75.04886416899025,-75.26621978178525,1,0,48504.14500000009,250.955:195.0;,250.955:195.0;,,0.0,250.955;
36,2024-07-16 22:07:00,247.99,247.44,247.99,247.25,603696.0,149090816.0,1721138820,,,,,,,,,,,-3.133913653513737,-11.811383784127074,1.986928571428574,71.3008056740298,-75.33003518753249,0,0,96862.1950000001,,,247.99:195.0;,-578.1750000000006,
104,2024-07-17 23:15:00,250.111,250.363,250.57,250.111,264212.0,65500160.0,1721229300,,,,,,,1.0,,,,12.852244057697703,6.828444415154706,1.661999999999996,62.19517283796458,-73.62085777878757,1,0,48590.7720000001,250.111:193.0;,250.111:193.0;,,0.0,250.111;
131,2024-07-17 23:42:00,248.92,248.4,249.03,248.4,466904.0,115358720.0,1721230920,,,,,,,,,,,5.217157058005796,-7.116346112737574,1.2817857142857096,60.187036768202034,-62.73305199147966,0,0,96632.3320000001,,,248.92:193.0;,-229.86300000000048,
10,2024-07-19 21:41:00,246.96,247.2,247.35,246.96,333481.0,82427392.0,1721396460,1.0,,,,,,,,,,39.54922006680994,-11.930838631045065,1.5251428571428594,25.251733713975824,-52.69565344348148,1,0,48475.13200000009,246.96:195.0;,246.96:195.0;,,0.0,246.96;
16,2024-07-19 21:47:00,245.03,245.209,245.209,244.682,469346.0,115024128.0,1721396820,,,,,,,,,,,15.388170808747816,-13.990652433579456,1.574071428571431,25.251733713975824,-73.3874015792648,0,0,96255.98200000009,,,245.03:195.0;,-376.35000000000133,
36,2024-07-19 22:07:00,243.68,243.868,243.94,243.68,275160.0,66974720.0,1721398020,,,,,,,1.0,,1.0,,-2.1768412612053467,-15.610456647100982,1.878428571428572,20.600145396431188,-76.41116789888704,1,0,48007.34200000009,243.68:198.0;,243.68:198.0;,,0.0,243.68;
62,2024-07-19 22:33:00,241.6,241.44,241.605,241.39,599838.0,144722944.0,1721399580,,,,,,,,,,,-2.0669730982052705,-17.06274014732609,2.070214285714284,15.120779881055086,-75.63059571813999,0,0,95844.14200000008,,,241.6:198.0;,-411.8400000000025,
6,2024-07-26 21:37:00,218.863,218.67,219.579,218.67,474103.0,103917184.0,1722001020,1.0,,,,,,,,,,-1.0033865186337891,4.105735254011762,1.5255714285714288,32.12036648862252,-64.24841444368948,1,0,48132.00800000008,218.863:218.0;,218.863:218.0;,,0.0,218.863;
12,2024-07-26 21:43:00,217.07,217.298,217.592,216.987,547357.0,118939904.0,1722001380,,,,,,,,,1.0,,-8.477317112243874,-1.9933122896124476,1.6086428571428582,32.12036648862252,-76.1738638055731,1,0,47697.86800000008,217.07:220.0;,217.07:220.0;,217.07:218.0;,-390.8740000000014,217.07;
14,2024-07-26 21:45:00,218.49,219.06,219.06,218.435,556164.0,121616128.0,1722001500,,,,,1.0,,,,,,-3.582226335176337,-2.787127827884774,1.710071428571431,32.12036648862252,-70.53359374492348,1,0,67.04800000008254,217.07:220.0;218.49:218.0;,218.49:218.0;,,0.0,218.49;218.49;
24,2024-07-26 21:55:00,219.87,219.61,219.87,219.475,397348.0,87344640.0,1722002100,,1.0,,,,,,,,,23.17733486026393,-3.4514539239653037,1.908928571428573,32.12036648862252,78.65086170095289,0,1,48218.57800000008,217.07:110.0;218.49:109.0;,,219.87:110;219.87:109;,458.42000000000075,220.41;220.41;
40,2024-07-26 22:11:00,217.119,217.31,217.31,216.761,584292.0,126501376.0,1722003060,,,,,,,,,,,14.870412376297791,-6.650988316860847,2.018500000000001,31.33054885160142,-72.36050377745224,0,0,95767.63900000008,,,217.119:110.0;217.119:109.0;,-144.0490000000003,
64,2024-07-26 22:35:00,216.479,216.52,216.645,216.36,243776.0,52673536.0,1722004500,,,,,,,1.0,,,,11.19011850727648,-14.280219697299117,2.1137142857142868,29.18133418066207,-72.98716537627763,1,0,47925.78000000008,216.479:221.0;,216.479:221.0;,,0.0,216.479;
83,2024-07-26 22:54:00,215.48,216.0,216.03,215.48,232992.0,50151936.0,1722005640,,,,,,,,,,,16.712634254538052,-16.87413871837481,1.4566428571428571,29.18133418066207,-72.3779813915145,0,0,95546.86000000007,,,215.48:221.0;,-220.77900000000523,
98,2024-07-30 23:09:00,227.176,227.074,227.225,226.91,336288.0,75572224.0,1722352140,,,,,,,,,1.0,,-18.332959902158308,8.630635957269831,1.2425714285714275,101.77324926238391,-75.7231146803177,1,0,47839.900000000074,227.176:210.0;,227.176:210.0;,,0.0,227.176;
122,2024-07-30 23:33:00,225.965,225.81,225.965,225.581,369704.0,82932736.0,1722353580,,,,,,,,,,,-5.563873445689055,-5.13580786594396,1.0691428571428605,99.74460294054394,-74.95720653042197,0,0,95292.55000000008,,,225.965:210.0;,-254.3099999999967,
124,2024-07-30 23:35:00,225.7,225.73,225.77,225.54,165524.0,36875264.0,1722353700,,,,,,,1.0,,,,-5.562994602135845,-7.7334796141916655,1.1078571428571482,99.74460294054394,-74.15675634329041,1,0,47669.85000000008,225.7:211.0;,225.7:211.0;,,0.0,225.7;
135,2024-07-30 23:46:00,224.31,224.555,224.65,224.31,171180.0,38100992.0,1722354360,,,,,,,,,,,-6.219400704603924,-11.94100629502897,1.0907142857142884,99.74460294054394,-76.1535936660787,0,0,94999.26000000008,,,224.31:211.0;,-293.2899999999971,
213,2024-07-31 01:04:00,220.24,220.29,220.29,220.22,104544.0,23025664.0,1722359040,,,1.0,,,,,,,,4.15958085714794,-15.849944881588009,0.9138571428571476,81.68834266432508,-70.92565267173924,1,0,47427.42000000008,220.24:216.0;,220.24:216.0;,,0.0,220.24;
267,2024-07-31 01:58:00,223.12,223.15,223.17,223.0,205120.0,45747200.0,1722362280,,,,,,,,,,,95.6483020631762,16.17705357706793,0.7537857142857141,76.54334014517448,20.173937261463884,0,0,95621.34000000008,,,223.12:216.0;,622.079999999999,
68,2024-08-01 22:39:00,226.124,226.776,226.776,226.124,249488.0,55908864.0,1722523140,,,,,,,,,1.0,,-6.494725082940107,8.112566050499268,1.8862142857142865,77.55975528236657,-77.0412372630573,1,0,47909.17600000009,226.124:211.0;,226.124:211.0;,,0.0,226.124;
85,2024-08-01 22:56:00,225.09,225.599,225.599,225.09,260906.0,58338304.0,1722524160,,,,,,,,,,,1.9254414962517077,-6.687502921023494,1.243857142857146,77.55975528236657,-72.86433648126454,0,0,95403.16600000008,,,225.09:211.0;,-218.17399999999827,
94,2024-08-01 23:05:00,224.28,223.935,224.28,223.935,265636.0,59109888.0,1722524700,,,,,,,1.0,,,,-1.78847689942814,-12.68050110130008,1.2165000000000004,71.57022596773606,-74.56740893608641,1,0,47631.526000000085,224.28:213.0;,224.28:213.0;,,0.0,224.28;
130,2024-08-01 23:41:00,224.04,223.45,224.04,223.45,394656.0,87651840.0,1722526860,,,,,,,,,,,28.611415878757285,-16.899800755791205,0.850285714285714,66.11246664444046,-53.37071323220662,0,0,95352.04600000009,,,224.04:213.0;,-51.12000000000194,
238,2024-08-02 01:29:00,220.12,220.115,220.12,220.1,99136.0,21730304.0,1722533340,,,1.0,,,,,,,,7.0316292633995765,-13.808468812727453,0.5484999999999981,43.21938068065698,-35.148534292471645,1,0,47586.00600000009,220.12:217.0;,220.12:217.0;,,0.0,220.12;
245,2024-08-02 01:36:00,219.385,219.51,219.543,219.385,109292.0,23861248.0,1722533760,,,,,,,,,,,6.189791105054734,-13.182271830876315,0.5244285714285704,34.431585195548976,-66.13520705598634,0,0,95192.5510000001,,,219.385:217.0;,-159.49500000000296,
327,2024-08-02 02:58:00,215.2,215.44,215.49,215.2,205992.0,44279808.0,1722538680,,,,,1.0,,,,,,-8.767803402488632,-2.1517326381395137,0.8679285714285682,21.88808185652641,-76.48323575320454,1,0,47418.1510000001,215.2:222.0;,215.2:222.0;,,0.0,215.2;
373,2024-08-02 03:44:00,215.77,215.851,215.851,215.631,268800.0,57854976.0,1722541440,,,,,,,,,,,97.21304067203543,12.554595219872624,0.7883571428571372,11.289075408913972,48.297651831682174,0,0,95319.0910000001,,,215.77:222.0;,126.5400000000048,
42,2024-08-02 22:13:00,211.13,210.755,211.13,210.65,266058.0,56112384.0,1722607980,1.0,,,,,,,,1.0,,-4.876519047997959,19.603396100644908,3.3794999999999997,-8.105598177276434,-74.5443430152376,1,0,47814.8410000001,211.13:225.0;,211.13:225.0;,,0.0,211.13;
74,2024-08-02 22:45:00,211.2,211.05,211.25,211.05,156216.0,32562176.0,1722609900,,,,,,,,,,,32.70523356684735,11.554357249115526,1.563285714285712,-10.256292499145374,-68.18496660021628,0,0,95334.8410000001,,,211.2:225.0;,15.749999999998465,
106,2024-08-02 23:17:00,208.58,208.01,208.58,207.955,553296.0,114380288.0,1722611820,,,,,,,1.0,,,,-5.940248830833735,3.1122837781933086,1.4306428571428569,-14.085421203541188,-54.74991640303491,1,0,47778.6010000001,208.58:228.0;,208.58:228.0;,,0.0,208.58;
142,2024-08-02 23:53:00,210.06,210.2,210.22,210.06,131524.0,27305984.0,1722613980,,,,,,,,,,,104.79449022591578,7.168576933620059,1.2278571428571448,-16.414200157054182,64.59427603270976,0,0,95672.2810000001,,,210.06:228.0;,337.43999999999767,
253,2024-08-03 01:44:00,206.46,206.34,206.46,206.33,169092.0,34793472.0,1722620640,,,1.0,,,,,,,,-0.1688991089982749,3.180802828006744,0.8530000000000005,-22.586795154930957,-68.90507612880293,1,0,48186.4810000001,206.46:230.0;,206.46:230.0;,,0.0,206.46;
315,2024-08-03 02:46:00,207.73,207.51,207.73,207.49,145796.0,30174208.0,1722624360,,,,,,,,,,,86.51012707564459,28.67850689173002,0.6548571428571454,-23.628401199811933,46.29102687753662,0,0,95964.3810000001,,,207.73:230.0;,292.0999999999958,
9,2024-08-06 21:40:00,197.07,196.08,197.07,196.08,499703.0,98263680.0,1722951600,1.0,,,,,,,,1.0,,6.100533371284627,2.934267903751177,2.096571428571425,39.03126641176178,-75.342601260144,1,0,48076.3710000001,197.07:243.0;,197.07:243.0;,,0.0,197.07;
13,2024-08-06 21:44:00,194.275,193.835,194.7,193.81,641206.0,124664576.0,1722951840,,,,,,,,,,,-10.3629225672978,2.934267903751177,2.096571428571425,39.03126641176178,-78.28429485412245,0,0,95285.19600000011,,,194.275:243.0;,-679.184999999997,
17,2024-08-06 21:48:00,195.392,195.56,195.56,195.26,615274.0,120170496.0,1722952080,,,,,,,1.0,,,,-14.241408584363413,-0.9821216394377784,2.2162142857142846,39.03126641176178,-77.73186090733519,1,0,47414.15600000011,195.392:245.0;,195.392:245.0;,,0.0,195.392;
18,2024-08-06 21:49:00,195.46,196.105,196.105,195.46,377145.0,73890304.0,1722952140,,,,,1.0,,,,,,-11.83476127936801,-0.9821216394377784,2.2162142857142846,39.03126641176178,-74.87793941245326,1,0,112.83600000011211,195.392:245.0;195.46:242.0;,195.46:242.0;,,0.0,195.46;195.46;
36,2024-08-06 22:07:00,197.818,198.2,198.2,197.44,342504.0,67749120.0,1722953220,,1.0,,,,,,,,,28.59636763519734,8.92187331511738,2.629499999999997,39.32935605709309,56.18448685341078,0,1,48380.428000000116,195.392:122.0;195.46:121.0;,,197.818:123;197.818:121;,583.7160000000024,198.62;198.62;
63,2024-08-06 22:34:00,195.07,195.003,195.29,194.965,281504.0,54559744.0,1722954840,,,,,,,,,,,46.49334124077673,15.561487755659355,2.699642857142852,39.05148302317764,-58.95476625915772,0,0,95782.43800000011,,,195.07:122.0;195.07:121.0;,-86.47400000000212,
288,2024-08-08 02:19:00,192.735,192.252,192.735,192.252,230104.0,44335104.0,1723054740,,,1.0,,1.0,,,,,,-5.263608229542331,-13.766339321746884,0.7619285714285736,37.55645082409755,-71.38482792965702,1,0,47984.158000000105,192.735:248.0;,192.735:248.0;,,0.0,192.735;
307,2024-08-08 02:38:00,192.31,192.685,192.685,192.31,177552.0,34207744.0,1723055880,,,,,,,,,,,23.86477432383148,-13.74730592307104,0.7277857142857138,37.618007065111456,-49.54937977150263,0,0,95677.0380000001,,,192.31:248.0;,-105.40000000000282,
5,2024-08-08 21:36:00,194.97,195.43,195.43,194.52,378711.0,73824704.0,1723124160,1.0,,,,,,,,,,57.34959096485376,17.79378098914946,1.4205,38.40795501439622,73.57151791277359,1,0,47909.3880000001,194.97:245.0;,194.97:245.0;,,0.0,194.97;
14,2024-08-08 21:45:00,192.81,192.789,192.99,192.789,310566.0,59956992.0,1723124700,,,,,,,,,,,79.87913638083393,29.91222302702197,1.509285714285718,38.40795501439622,47.561200254177166,0,0,95147.8380000001,,,192.81:245.0;,-529.1999999999991,
67,2024-08-09 22:38:00,195.91,195.822,195.91,195.738,158316.0,31099648.0,1723214280,,,,,,,,,1.0,,-2.3641623600216093,-8.555067821678051,1.8614285714285737,58.92391607274587,-74.90377165240915,1,0,47737.618000000104,195.91:242.0;,195.91:242.0;,,0.0,195.91;
119,2024-08-09 23:30:00,197.841,197.74,197.87,197.74,197676.0,38833152.0,1723217400,,,,,,,,,,,98.51604026740716,13.867678929507278,0.8405714285714286,57.51250930609862,48.868646680960325,0,0,95615.1400000001,,,197.841:242.0;,467.3020000000028,
24,2024-08-14 21:55:00,203.065,202.38,203.1,202.38,455015.0,92308224.0,1723643700,,,,,,,1.0,,,,-23.46066009587382,18.483555680516844,1.209071428571426,103.20325292792764,-77.92258288698206,1,0,47894.8650000001,203.065:235.0;,203.065:235.0;,,0.0,203.065;
28,2024-08-14 21:59:00,202.564,202.865,202.87,202.564,299201.0,60684032.0,1723643940,,,,,1.0,,,,,,-22.436612495330948,18.483555680516844,1.209071428571426,103.20325292792764,-77.72493892857061,1,0,89.76100000010047,203.065:235.0;202.564:236.0;,202.564:236.0;,,0.0,203.065;202.564;
41,2024-08-14 22:12:00,201.46,201.44,201.635,201.42,651650.0,131542528.0,1723644720,,,,,,,,,,,-10.837053989637065,2.96981933767276,1.3284999999999971,95.96831714761971,-74.21014941011667,0,0,94977.4210000001,,,201.46:235.0;201.46:236.0;,-637.718999999994,
177,2024-08-15 00:28:00,200.371,200.4,200.47,200.371,140888.0,28203520.0,1723652880,,,,,1.0,,,,,,-22.167237041908702,1.728693877079067,0.5904285714285707,71.9545635487232,-77.51564233456295,1,0,47289.1230000001,200.371:238.0;,200.371:238.0;,,0.0,200.371;
194,2024-08-15 00:45:00,199.08,198.915,199.08,198.768,461268.0,91643904.0,1723653900,,,,,,,,,,,-25.38553852248735,-5.965781396273272,0.6467857142857127,65.06223791013338,-78.75088940435933,0,0,94670.1630000001,,,199.08:238.0;,-307.25799999999924,
65,2024-08-22 22:36:00,219.905,220.335,220.335,219.905,258780.0,56498688.0,1724337360,,,,,,,1.0,,,,1.5265066233030211,4.892380202518154,1.288499999999997,56.516001502354015,-73.54618172306587,1,0,47390.588000000105,219.905:215.0;,219.905:215.0;,,0.0,219.905;
80,2024-08-22 22:51:00,218.361,218.7,218.7,218.361,292416.0,63537152.0,1724338260,,,,,,,,,,,6.90768346723398,-5.114505403537237,1.070999999999998,56.516001502354015,-74.11710253494743,0,0,94338.2030000001,,,218.361:215.0;,-331.9600000000024,
261,2024-08-23 01:52:00,213.84,213.73,213.84,213.72,162164.0,34600960.0,1724349120,,,1.0,,,,,,,,-10.325751416700172,-8.1525281399269,0.5629999999999963,20.014213009660608,-77.39823786404148,1,0,47079.5630000001,213.84:221.0;,213.84:221.0;,,0.0,213.84;
266,2024-08-23 01:57:00,213.39,213.544,213.544,213.39,174412.0,37164032.0,1724349420,,,,,1.0,,,,,,-6.340349181129984,-8.52573407094576,0.6019285714285688,20.014213009660608,-74.87068570247904,1,0,133.76300000010087,213.84:221.0;213.39:220.0;,213.39:220.0;,,0.0,213.84;213.39;
325,2024-08-23 02:56:00,213.44,213.396,213.54,213.37,109124.0,23246848.0,1724352960,,,,,,,,,,,62.14498934074357,2.64715153122306,0.4354285714285798,7.23071425171392,21.7082118297636,0,0,94260.8030000001,,,213.44:221.0;213.44:220.0;,-77.39999999999876,
385,2024-08-23 03:56:00,211.08,210.82,211.18,210.82,352216.0,74230784.0,1724356560,,,,,1.0,,,,,,-14.799889070827366,0.9268238863175924,0.5546428571428602,-3.848583635195965,-73.82717855471577,1,0,94260.8030000001,,,,0.0,
51,2024-08-26 22:22:00,213.741,213.32,213.741,213.32,285407.0,60998656.0,1724682120,,,,,,,1.0,,1.0,,-8.755157328619763,13.926491778990028,1.1808571428571497,60.27193360361652,-76.32492659506522,1,0,47237.7830000001,213.741:220.0;,213.741:220.0;,,0.0,213.741;
62,2024-08-26 22:33:00,212.092,211.921,212.101,211.921,391956.0,82896896.0,1724682780,,,,,,,,,,,-5.3777187847830525,1.435300659392624,1.260214285714292,54.42018817007583,-75.9944988672925,0,0,93898.0230000001,,,212.092:220.0;,-362.7800000000002,
103,2024-08-28 23:14:00,204.825,204.71,204.825,204.57,136630.0,27552768.0,1724858040,,,,,,,1.0,,,,6.210154156717714,-4.439895644770559,0.8786428571428522,9.843147003341173,-72.29913629811406,1,0,46993.09800000011,204.825:229.0;,204.825:229.0;,,0.0,204.825;
164,2024-08-29 00:15:00,205.24,205.17,205.26,205.13,75208.0,15396864.0,1724861700,,,,,,,,,,,55.60882461630448,-1.4574704255934634,0.5656428571428539,7.338352367632467,16.48655184304055,0,0,93993.0580000001,,,205.24:229.0;,95.03500000000469,
5,2024-08-30 21:36:00,207.75,207.445,207.768,207.43,295798.0,61382336.0,1725024960,1.0,,,,,,,,,,34.96821426503101,-13.512911423193811,0.9936428571428552,64.12275451168324,75.83229630194614,1,0,47041.55800000011,207.75:226.0;,207.75:226.0;,,0.0,207.75;
31,2024-08-30 22:02:00,209.765,210.17,210.17,209.73,268717.0,56423936.0,1725026520,,1.0,,,,,,,,,94.79706559591892,10.841852741665704,1.2381428571428554,66.87397035112744,71.99312976552028,0,1,70745.00300000011,207.75:113.0;,,209.765:113;,227.69499999999846,210.0;
56,2024-08-30 22:27:00,208.54,208.639,208.687,208.54,135034.0,28175872.0,1725028020,,,,,,,,,,,50.5610605756155,34.08857768210548,1.394357142857142,66.87397035112744,-24.04869526047103,0,0,94310.02300000012,,,208.54:113.0;,89.2699999999991,
279,2024-09-04 02:10:00,213.0,212.83,213.02,212.83,105640.0,22452224.0,1725387000,,,,,1.0,,,,,,-9.183465487377418,4.880737713848816,0.570928571428569,78.8264772718537,-77.32180609380288,1,0,47237.02300000012,213.0:221.0;,213.0:221.0;,,0.0,213.0;
283,2024-09-04 02:14:00,212.42,212.201,212.42,212.201,133884.0,28348416.0,1725387240,,,,,,,1.0,,,,-15.574652518384816,4.880737713848816,0.570928571428569,78.8264772718537,-77.98233604462537,1,0,292.20300000011775,213.0:221.0;212.42:221.0;,212.42:221.0;,,0.0,213.0;212.42;
284,2024-09-04 02:15:00,212.021,212.025,212.04,211.94,233436.0,49366016.0,1725387300,,,,,,,,,,,-16.261963899033383,0.9129909627619952,0.5877142857142843,78.8264772718537,-78.39031508148484,0,0,47148.844000000114,212.42:221.0;,,212.021:221.0;,-216.35900000000296,212.42;
302,2024-09-04 02:33:00,211.634,212.04,212.04,211.54,248948.0,52633600.0,1725388380,,,,,,,,,,,-4.059834473270328,-6.3828582618011325,0.5348571428571388,76.03592552619482,-72.28950250859694,0,0,93919.9580000001,,,211.634:221.0;,-173.7060000000003,
3,2024-09-05 21:34:00,224.83,224.45,225.48,224.45,1151099.0,259149184.0,1725543240,1.0,,,,,,,,,,95.46557261729878,2.234464107184067,0.659000000000004,89.1162306804514,70.11574800418653,1,0,47155.3180000001,224.83:208.0;,224.83:208.0;,,0.0,224.83;
10,2024-09-05 21:41:00,229.23,228.246,229.23,228.246,672969.0,153885440.0,1725543660,,1.0,,,,,,,,1.0,108.58977837222224,24.601545028425008,1.406714285714291,89.1162306804514,73.99690183031058,0,1,70995.2380000001,224.83:104.0;,,229.23:104;,457.59999999999764,229.23;
35,2024-09-05 22:06:00,231.804,232.25,232.37,231.804,564892.0,130883072.0,1725545160,,,,,,,,1.0,,,110.02956174585704,68.21928976106456,1.8608571428571503,91.56815550309484,38.445216027322815,0,1,95102.85400000011,,,231.804:104.0;,725.2959999999989,231.97;
